Time [s];Amplitude;Amplitude;
0.000000; -0.021484; 0.480103
0.000023; -0.203918; 0.531189
0.000045; -0.380859; 0.552002
0.000068; -0.536133; 0.541382
0.000091; -0.661255; 0.500305
0.000113; -0.747375; 0.433411
0.000136; -0.790771; 0.344055
0.000159; -0.789246; 0.237305
0.000181; -0.741943; 0.118286
0.000204; -0.649902; -0.005798
0.000227; -0.520264; -0.130676
0.000249; -0.361572; -0.251099
0.000272; -0.181885; -0.359253
0.000295; 0.004883; -0.450256
0.000317; 0.189392; -0.517395
0.000340; 0.358582; -0.555054
0.000363; 0.505554; -0.558594
0.000385; 0.620667; -0.528870
0.000408; 0.701904; -0.468445
0.000431; 0.746338; -0.382507
0.000454; 0.754272; -0.276489
0.000476; 0.724976; -0.156494
0.000499; 0.660522; -0.029785
0.000522; 0.563782; 0.098083
0.000544; 0.436951; 0.221069
0.000567; 0.285278; 0.332520
0.000590; 0.112122; 0.426453
0.000612; -0.071411; 0.497314
0.000635; -0.255615; 0.539673
0.000658; -0.425903; 0.551819
0.000680; -0.573242; 0.533020
0.000703; -0.690552; 0.484131
0.000726; -0.765747; 0.410461
0.000748; -0.796509; 0.316345
0.000771; -0.781372; 0.205383
0.000794; -0.720093; 0.084839
0.000816; -0.619080; -0.040405
0.000839; -0.481018; -0.164734
0.000862; -0.315857; -0.281372
0.000884; -0.132935; -0.385986
0.000907; 0.055176; -0.471069
0.000930; 0.235535; -0.530457
0.000952; 0.399353; -0.559021
0.000975; 0.537781; -0.554199
0.000998; 0.645569; -0.515625
0.001020; 0.716187; -0.447571
0.001043; 0.750732; -0.354919
0.001066; 0.748901; -0.244629
0.001088; 0.708252; -0.122803
0.001111; 0.636780; 0.005615
0.001134; 0.532166; 0.132812
0.001156; 0.397095; 0.252808
0.001179; 0.237915; 0.360168
0.001202; 0.060364; 0.447998
0.001224; -0.123596; 0.511292
0.001247; -0.304077; 0.546143
0.001270; -0.470093; 0.549377
0.001293; -0.611816; 0.521973
0.001315; -0.715759; 0.466125
0.001338; -0.779175; 0.386841
0.001361; -0.798157; 0.287659
0.001383; -0.770142; 0.172729
0.001406; -0.699951; 0.050354
0.001429; -0.585449; -0.074463
0.001451; -0.438782; -0.197449
0.001474; -0.268066; -0.311707
0.001497; -0.083069; -0.411987
0.001519; 0.103088; -0.490784
0.001542; 0.281128; -0.541870
0.001565; 0.439636; -0.561462
0.001587; 0.569885; -0.546875
0.001610; 0.665771; -0.500122
0.001633; 0.727234; -0.424866
0.001655; 0.752380; -0.326538
0.001678; 0.738586; -0.212585
0.001701; 0.692139; -0.087891
0.001723; 0.610779; 0.040833
0.001746; 0.496155; 0.166260
0.001769; 0.353577; 0.283386
0.001791; 0.188660; 0.386047
0.001814; 0.009583; 0.467651
0.001837; -0.174438; 0.523804
0.001859; -0.353455; 0.550110
0.001882; -0.512817; 0.544739
0.001905; -0.643372; 0.510010
0.001927; -0.739319; 0.446594
0.001950; -0.791016; 0.360962
0.001973; -0.796875; 0.257141
0.001995; -0.756287; 0.139526
0.002018; -0.672302; 0.016357
0.002041; -0.549194; -0.109131
0.002063; -0.396118; -0.230042
0.002086; -0.219421; -0.340515
0.002109; -0.032471; -0.435730
0.002132; 0.151123; -0.507935
0.002154; 0.325439; -0.551086
0.002177; 0.476257; -0.561218
0.002200; 0.598877; -0.537292
0.002222; 0.687073; -0.481995
0.002245; 0.738098; -0.400208
0.002268; 0.750610; -0.297241
0.002290; 0.728577; -0.179504
0.002313; 0.671082; -0.052795
0.002336; 0.581116; 0.075256
0.002358; 0.458740; 0.198975
0.002381; 0.310486; 0.313171
0.002404; 0.140198; 0.410095
0.002426; -0.042847; 0.485657
0.002449; -0.225952; 0.533508
0.002472; -0.400269; 0.551758
0.002494; -0.554504; 0.537659
0.002517; -0.676331; 0.494446
0.002540; -0.758240; 0.425415
0.002562; -0.797607; 0.334534
0.002585; -0.790039; 0.226074
0.002608; -0.739197; 0.106445
0.002630; -0.642273; -0.017700
0.002653; -0.512451; -0.143250
0.002676; -0.351135; -0.261414
0.002698; -0.170959; -0.368652
0.002721; 0.015808; -0.457764
0.002744; 0.199829; -0.521973
0.002766; 0.368713; -0.556824
0.002789; 0.512573; -0.557861
0.002812; 0.625610; -0.525085
0.002834; 0.702393; -0.461975
0.002857; 0.744141; -0.373352
0.002880; 0.750061; -0.265808
0.002902; 0.716370; -0.145386
0.002925; 0.650330; -0.017944
0.002948; 0.549866; 0.109619
0.002971; 0.419983; 0.231201
0.002993; 0.267273; 0.341614
0.003016; 0.091064; 0.433350
0.003039; -0.092041; 0.501282
0.003061; -0.273010; 0.542175
0.003084; -0.443848; 0.550964
0.003107; -0.589172; 0.528931
0.003129; -0.700378; 0.478271
0.003152; -0.769836; 0.402771
0.003175; -0.799072; 0.306213
0.003197; -0.779968; 0.194092
0.003220; -0.714844; 0.073242
0.003243; -0.609680; -0.052551
0.003265; -0.468384; -0.176270
0.003288; -0.300598; -0.292419
0.003311; -0.119507; -0.395935
0.003333; 0.068970; -0.478821
0.003356; 0.248779; -0.535522
0.003379; 0.411011; -0.560974
0.003401; 0.546936; -0.552673
0.003424; 0.650146; -0.510620
0.003447; 0.718079; -0.440491
0.003469; 0.747253; -0.346313
0.003492; 0.743347; -0.234375
0.003515; 0.699524; -0.111450
0.003537; 0.623840; 0.016968
0.003560; 0.516724; 0.143616
0.003583; 0.379883; 0.263123
0.003605; 0.218079; 0.368225
0.003628; 0.040894; 0.454224
0.003651; -0.142578; 0.515442
0.003673; -0.324829; 0.547119
0.003696; -0.487610; 0.547424
0.003719; -0.625488; 0.517761
0.003741; -0.726501; 0.459167
0.003764; -0.785095; 0.377869
0.003787; -0.801025; 0.276733
0.003810; -0.767761; 0.161377
0.003832; -0.691467; 0.038818
0.003855; -0.576965; -0.086914
0.003878; -0.425659; -0.208496
0.003900; -0.253479; -0.321838
0.003923; -0.068054; -0.420776
0.003946; 0.117859; -0.497131
0.003968; 0.293579; -0.545654
0.003991; 0.450073; -0.562439
0.004014; 0.577637; -0.544312
0.004036; 0.672913; -0.494263
0.004059; 0.729980; -0.417480
0.004082; 0.751648; -0.317322
0.004104; 0.735168; -0.201477
0.004127; 0.683594; -0.076477
0.004150; 0.599121; 0.051880
0.004172; 0.481567; 0.177307
0.004195; 0.339233; 0.293213
0.004218; 0.171997; 0.393921
0.004240; -0.009521; 0.473145
0.004263; -0.193481; 0.526917
0.004286; -0.370972; 0.550110
0.004308; -0.527649; 0.542053
0.004331; -0.655212; 0.504700
0.004354; -0.745789; 0.439392
0.004376; -0.791626; 0.352051
0.004399; -0.796753; 0.246582
0.004422; -0.751160; 0.129028
0.004444; -0.664368; 0.004395
0.004467; -0.538452; -0.120544
0.004490; -0.381348; -0.241089
0.004512; -0.203369; -0.350586
0.004535; -0.016052; -0.443909
0.004558; 0.166199; -0.513733
0.004580; 0.339661; -0.553528
0.004603; 0.488403; -0.560913
0.004626; 0.606201; -0.534119
0.004649; 0.691650; -0.475891
0.004671; 0.739685; -0.391846
0.004694; 0.750244; -0.286926
0.004717; 0.725159; -0.168396
0.004739; 0.661682; -0.042053
0.004762; 0.567749; 0.086182
0.004785; 0.444702; 0.209656
0.004807; 0.294922; 0.322632
0.004830; 0.123718; 0.418030
0.004853; -0.059570; 0.490784
0.004875; -0.242737; 0.536560
0.004898; -0.416260; 0.551514
0.004921; -0.567261; 0.535095
0.004943; -0.685303; 0.489197
0.004966; -0.765381; 0.417419
0.004989; -0.800354; 0.324646
0.005011; -0.790344; 0.215027
0.005034; -0.732544; 0.094910
0.005057; -0.634766; -0.030029
0.005079; -0.497681; -0.153870
0.005102; -0.336243; -0.272217
0.005125; -0.154602; -0.378052
0.005147; 0.033752; -0.465210
0.005170; 0.214355; -0.527832
0.005193; 0.382874; -0.559082
0.005215; 0.521118; -0.556946
0.005238; 0.634033; -0.521057
0.005261; 0.707092; -0.455627
0.005283; 0.745483; -0.365112
0.005306; 0.746887; -0.256104
0.005329; 0.708801; -0.134338
0.005351; 0.640930; -0.006653
0.005374; 0.536682; 0.119812
0.005397; 0.406738; 0.241333
0.005420; 0.247803; 0.349548
0.005442; 0.070862; 0.439209
0.005465; -0.110779; 0.505432
0.005488; -0.293396; 0.542847
0.005510; -0.461365; 0.549011
0.005533; -0.604980; 0.523865
0.005556; -0.712830; 0.470825
0.005578; -0.779724; 0.393127
0.005601; -0.802734; 0.295227
0.005624; -0.778931; 0.182007
0.005646; -0.710693; 0.059753
0.005669; -0.601196; -0.065674
0.005692; -0.458252; -0.188965
0.005714; -0.286804; -0.304199
0.005737; -0.103577; -0.406311
0.005760; 0.084412; -0.486633
0.005782; 0.263550; -0.540771
0.005805; 0.423279; -0.563293
0.005828; 0.557251; -0.552185
0.005850; 0.656189; -0.508057
0.005873; 0.721802; -0.434875
0.005896; 0.750549; -0.338806
0.005918; 0.740234; -0.225647
0.005941; 0.695862; -0.101685
0.005964; 0.615173; 0.026428
0.005986; 0.504333; 0.152527
0.006009; 0.365417; 0.270447
0.006032; 0.202332; 0.375061
0.006054; 0.025024; 0.458740
0.006077; -0.160706; 0.516846
0.006100; -0.339661; 0.546265
0.006122; -0.501282; 0.543579
0.006145; -0.635376; 0.511353
0.006168; -0.733765; 0.450867
0.006190; -0.790039; 0.367249
0.006213; -0.799072; 0.265076
0.006236; -0.763489; 0.148193
0.006259; -0.684814; 0.024719
0.006281; -0.565918; -0.100830
0.006304; -0.412354; -0.222046
0.006327; -0.237549; -0.334473
0.006349; -0.052002; -0.431091
0.006372; 0.134705; -0.504883
0.006395; 0.308777; -0.550842
0.006417; 0.463562; -0.564331
0.006440; 0.587769; -0.544067
0.006463; 0.679443; -0.491089
0.006485; 0.733643; -0.411743
0.006508; 0.750061; -0.310364
0.006531; 0.731506; -0.193054
0.006553; 0.676941; -0.067810
0.006576; 0.588867; 0.060730
0.006599; 0.469299; 0.185486
0.006621; 0.323853; 0.300598
0.006644; 0.156189; 0.400024
0.006667; -0.026184; 0.476929
0.006689; -0.210205; 0.528137
0.006712; -0.385437; 0.549194
0.006735; -0.540161; 0.538330
0.006757; -0.665405; 0.497437
0.006780; -0.753479; 0.429749
0.006803; -0.797668; 0.340271
0.006825; -0.793884; 0.234070
0.006848; -0.745239; 0.115479
0.006871; -0.654785; -0.008972
0.006893; -0.524780; -0.133789
0.006916; -0.366821; -0.253174
0.006939; -0.187012; -0.361816
0.006961; 0.001587; -0.452698
0.006984; 0.184448; -0.519653
0.007007; 0.355225; -0.557251
0.007029; 0.499390; -0.561829
0.007052; 0.616333; -0.531677
0.007075; 0.698303; -0.470642
0.007098; 0.742920; -0.384521
0.007120; 0.749817; -0.278503
0.007143; 0.720825; -0.158569
0.007166; 0.657532; -0.031860
0.007188; 0.558716; 0.095825
0.007211; 0.434387; 0.219421
0.007234; 0.281128; 0.330994
0.007256; 0.108826; 0.424194
0.007279; -0.075195; 0.495056
0.007302; -0.259644; 0.537659
0.007324; -0.428589; 0.550293
0.007347; -0.577637; 0.531067
0.007370; -0.694031; 0.481995
0.007392; -0.768250; 0.409058
0.007415; -0.799072; 0.314209
0.007438; -0.784790; 0.203613
0.007460; -0.724670; 0.082642
0.007483; -0.621887; -0.042297
0.007506; -0.485168; -0.166443
0.007528; -0.318359; -0.283203
0.007551; -0.134521; -0.387695
0.007574; 0.051514; -0.472961
0.007596; 0.231995; -0.532410
0.007619; 0.395569; -0.560425
0.007642; 0.535339; -0.555420
0.007664; 0.643738; -0.517090
0.007687; 0.713562; -0.448853
0.007710; 0.748474; -0.356079
0.007732; 0.745300; -0.245483
0.007755; 0.706787; -0.123047
0.007778; 0.633545; 0.004944
0.007800; 0.528320; 0.131714
0.007823; 0.393494; 0.252563
0.007846; 0.234375; 0.359924
0.007868; 0.057007; 0.447632
0.007891; -0.128052; 0.510742
0.007914; -0.307312; 0.546204
0.007937; -0.473694; 0.549622
0.007959; -0.613953; 0.521790
0.007982; -0.720764; 0.466125
0.008005; -0.784119; 0.386719
0.008027; -0.801270; 0.287354
0.008050; -0.772644; 0.173767
0.008073; -0.701843; 0.051514
0.008095; -0.589539; -0.074219
0.008118; -0.443665; -0.196594
0.008141; -0.271118; -0.310547
0.008163; -0.085937; -0.410889
0.008186; 0.100647; -0.490479
0.008209; 0.279419; -0.541626
0.008231; 0.436829; -0.561157
0.008254; 0.566956; -0.546631
0.008277; 0.664490; -0.499756
0.008299; 0.724915; -0.424622
0.008322; 0.750122; -0.326477
0.008345; 0.737549; -0.211792
0.008367; 0.687439; -0.087524
0.008390; 0.607849; 0.041138
0.008413; 0.492249; 0.166199
0.008435; 0.348572; 0.283142
0.008458; 0.186096; 0.385986
0.008481; 0.007141; 0.467712
0.008503; -0.176941; 0.524231
0.008526; -0.355591; 0.549927
0.008549; -0.516479; 0.544922
0.008571; -0.647156; 0.509766
0.008594; -0.740356; 0.447388
0.008617; -0.794312; 0.361145
0.008639; -0.798584; 0.257446
0.008662; -0.759399; 0.140076
0.008685; -0.676025; 0.016418
0.008707; -0.552002; -0.108948
0.008730; -0.398743; -0.230042
0.008753; -0.221680; -0.340210
0.008776; -0.034424; -0.435181
0.008798; 0.149780; -0.507446
0.008821; 0.322205; -0.550903
0.008844; 0.474182; -0.561218
0.008866; 0.596191; -0.537415
0.008889; 0.684082; -0.481934
0.008912; 0.736450; -0.399658
0.008934; 0.750122; -0.296753
0.008957; 0.727356; -0.179504
0.008980; 0.669617; -0.052856
0.009002; 0.578613; 0.075195
0.009025; 0.458313; 0.199524
0.009048; 0.309692; 0.313416
0.009070; 0.140015; 0.410706
0.009093; -0.042664; 0.485596
0.009116; -0.226196; 0.533875
0.009138; -0.401062; 0.551819
0.009161; -0.554199; 0.537781
0.009184; -0.676147; 0.494934
0.009206; -0.759766; 0.425293
0.009229; -0.797729; 0.334229
0.009252; -0.791809; 0.225952
0.009274; -0.740417; 0.106567
0.009297; -0.644104; -0.017517
0.009320; -0.511108; -0.142334
0.009342; -0.349426; -0.261108
0.009365; -0.171082; -0.368774
0.009388; 0.017090; -0.457703
0.009410; 0.201294; -0.522644
0.009433; 0.368164; -0.556946
0.009456; 0.511353; -0.557922
0.009478; 0.624573; -0.525024
0.009501; 0.701965; -0.462036
0.009524; 0.742859; -0.373657
0.009546; 0.747437; -0.265686
0.009569; 0.715881; -0.145264
0.009592; 0.649414; -0.017578
0.009615; 0.548523; 0.109680
0.009637; 0.419922; 0.231384
0.009660; 0.263245; 0.341492
0.009683; 0.089661; 0.433105
0.009705; -0.094604; 0.501038
0.009728; -0.276794; 0.542053
0.009751; -0.444275; 0.550842
0.009773; -0.590088; 0.529541
0.009796; -0.702820; 0.477905
0.009819; -0.775574; 0.401733
0.009841; -0.801636; 0.306152
0.009864; -0.782593; 0.194031
0.009887; -0.717529; 0.072876
0.009909; -0.610657; -0.052307
0.009932; -0.469910; -0.175720
0.009955; -0.303162; -0.291992
0.009977; -0.120605; -0.395447
0.010000; 0.067383; -0.478333
0.010023; 0.248596; -0.535034
0.010045; 0.409851; -0.561035
0.010068; 0.545227; -0.552490
0.010091; 0.648987; -0.510742
0.010113; 0.718506; -0.440308
0.010136; 0.748108; -0.346191
0.010159; 0.743164; -0.233826
0.010181; 0.700989; -0.111023
0.010204; 0.625671; 0.017334
0.010227; 0.517151; 0.143799
0.010249; 0.379211; 0.262939
0.010272; 0.220093; 0.368896
0.010295; 0.041260; 0.454346
0.010317; -0.143005; 0.515564
0.010340; -0.323730; 0.547119
0.010363; -0.486389; 0.548035
0.010385; -0.624023; 0.518250
0.010408; -0.726074; 0.459290
0.010431; -0.787842; 0.377502
0.010454; -0.800171; 0.277283
0.010476; -0.766663; 0.161987
0.010499; -0.692444; 0.039062
0.010522; -0.574524; -0.086304
0.010544; -0.425537; -0.208557
0.010567; -0.254578; -0.322144
0.010590; -0.067261; -0.420532
0.010612; 0.119568; -0.496643
0.010635; 0.295410; -0.545410
0.010658; 0.450317; -0.562134
0.010680; 0.577942; -0.544556
0.010703; 0.673218; -0.494507
0.010726; 0.731995; -0.416748
0.010748; 0.753052; -0.317322
0.010771; 0.735535; -0.201904
0.010794; 0.684692; -0.076416
0.010816; 0.600159; 0.051575
0.010839; 0.483765; 0.177063
0.010862; 0.340027; 0.293518
0.010884; 0.171326; 0.393677
0.010907; -0.008362; 0.473572
0.010930; -0.192688; 0.527405
0.010952; -0.368652; 0.550598
0.010975; -0.525085; 0.542725
0.010998; -0.653259; 0.504700
0.011020; -0.744995; 0.439331
0.011043; -0.790894; 0.352417
0.011066; -0.793396; 0.246704
0.011088; -0.750916; 0.128540
0.011111; -0.661865; 0.004700
0.011134; -0.535278; -0.119751
0.011156; -0.378418; -0.240784
0.011179; -0.201050; -0.350525
0.011202; -0.015869; -0.443298
0.011224; 0.168518; -0.513428
0.011247; 0.340027; -0.553955
0.011270; 0.487427; -0.561035
0.011293; 0.610657; -0.533813
0.011315; 0.692871; -0.476074
0.011338; 0.740784; -0.391663
0.011361; 0.753479; -0.286987
0.011383; 0.726135; -0.168091
0.011406; 0.666321; -0.041138
0.011429; 0.572083; 0.086426
0.011451; 0.445923; 0.209473
0.011474; 0.296021; 0.322815
0.011497; 0.125061; 0.417725
0.011519; -0.057068; 0.490784
0.011542; -0.240173; 0.536621
0.011565; -0.414246; 0.551331
0.011587; -0.563843; 0.534851
0.011610; -0.683350; 0.489319
0.011633; -0.762634; 0.417725
0.011655; -0.797180; 0.324829
0.011678; -0.786316; 0.215637
0.011701; -0.730408; 0.094604
0.011723; -0.632507; -0.030029
0.011746; -0.496521; -0.154419
0.011769; -0.331360; -0.272278
0.011791; -0.151001; -0.377930
0.011814; 0.036682; -0.465515
0.011837; 0.219177; -0.527283
0.011859; 0.385071; -0.558777
0.011882; 0.526184; -0.556885
0.011905; 0.636169; -0.521240
0.011927; 0.710754; -0.455688
0.011950; 0.747131; -0.365234
0.011973; 0.751099; -0.255432
0.011995; 0.713562; -0.134827
0.012018; 0.643433; -0.007080
0.012041; 0.542297; 0.121277
0.012063; 0.408752; 0.241333
0.012086; 0.253540; 0.350952
0.012109; 0.077454; 0.440308
0.012132; -0.107056; 0.506226
0.012154; -0.288452; 0.543884
0.012177; -0.456116; 0.550232
0.012200; -0.598877; 0.525513
0.012222; -0.708008; 0.471985
0.012245; -0.776794; 0.393555
0.012268; -0.798828; 0.295776
0.012290; -0.774902; 0.183411
0.012313; -0.706055; 0.061584
0.012336; -0.597229; -0.063904
0.012358; -0.453369; -0.187256
0.012381; -0.282837; -0.302185
0.012404; -0.099609; -0.404236
0.012426; 0.086853; -0.485107
0.012449; 0.265869; -0.539307
0.012472; 0.426453; -0.561523
0.012494; 0.559570; -0.550171
0.012517; 0.660706; -0.505859
0.012540; 0.725037; -0.432678
0.012562; 0.751831; -0.336975
0.012585; 0.743225; -0.223999
0.012608; 0.699341; -0.099609
0.012630; 0.619507; 0.028442
0.012653; 0.508362; 0.154297
0.012676; 0.368652; 0.272827
0.012698; 0.206787; 0.376709
0.012721; 0.027649; 0.460815
0.012744; -0.156921; 0.519897
0.012766; -0.336731; 0.548340
0.012789; -0.499756; 0.545959
0.012812; -0.633545; 0.513062
0.012834; -0.730347; 0.453247
0.012857; -0.786926; 0.369446
0.012880; -0.796692; 0.266846
0.012902; -0.760559; 0.150574
0.012925; -0.680054; 0.026917
0.012948; -0.560669; -0.097900
0.012971; -0.410095; -0.220032
0.012993; -0.232910; -0.331665
0.013016; -0.046936; -0.428223
0.013039; 0.138794; -0.502747
0.013061; 0.311279; -0.548767
0.013084; 0.466248; -0.561951
0.013107; 0.591125; -0.541748
0.013129; 0.682983; -0.488586
0.013152; 0.737000; -0.409119
0.013175; 0.753479; -0.307739
0.013197; 0.736389; -0.190430
0.013220; 0.681335; -0.065063
0.013243; 0.593445; 0.063171
0.013265; 0.475037; 0.188416
0.013288; 0.327454; 0.303162
0.013311; 0.159241; 0.401978
0.013333; -0.022217; 0.479675
0.013356; -0.205933; 0.530334
0.013379; -0.380188; 0.551575
0.013401; -0.536133; 0.540222
0.013424; -0.659851; 0.500061
0.013447; -0.746948; 0.432739
0.013469; -0.791809; 0.343140
0.013492; -0.789124; 0.236572
0.013515; -0.741455; 0.117737
0.013537; -0.651794; -0.007141
0.013560; -0.521667; -0.132141
0.013583; -0.362244; -0.251343
0.013605; -0.184082; -0.360046
0.013628; 0.004272; -0.451172
0.013651; 0.187195; -0.518555
0.013673; 0.358032; -0.555664
0.013696; 0.503723; -0.559753
0.013719; 0.620239; -0.529968
0.013741; 0.703186; -0.469238
0.013764; 0.746643; -0.383789
0.013787; 0.753113; -0.277771
0.013810; 0.724670; -0.157837
0.013832; 0.662781; -0.030884
0.013855; 0.564331; 0.096985
0.013878; 0.437805; 0.219238
0.013900; 0.285828; 0.331177
0.013923; 0.111572; 0.424500
0.013946; -0.069092; 0.495300
0.013968; -0.253357; 0.538208
0.013991; -0.425293; 0.549988
0.014014; -0.573547; 0.530823
0.014036; -0.688171; 0.482117
0.014059; -0.763245; 0.408752
0.014082; -0.794434; 0.314331
0.014104; -0.778503; 0.203369
0.014127; -0.719971; 0.082214
0.014150; -0.616577; -0.042725
0.014172; -0.478333; -0.166687
0.014195; -0.314575; -0.283997
0.014218; -0.132141; -0.388916
0.014240; 0.056702; -0.473450
0.014263; 0.237122; -0.533203
0.014286; 0.401062; -0.561890
0.014308; 0.541504; -0.556335
0.014331; 0.648071; -0.517944
0.014354; 0.719788; -0.449768
0.014376; 0.753052; -0.357788
0.014399; 0.751221; -0.246948
0.014422; 0.713074; -0.124817
0.014444; 0.639038; 0.002808
0.014467; 0.534119; 0.129944
0.014490; 0.399963; 0.249939
0.014512; 0.239868; 0.357361
0.014535; 0.064026; 0.445312
0.014558; -0.119324; 0.508911
0.014580; -0.301025; 0.543640
