Time [s];Amplitude;Amplitude;
0.000000; 0.000122; 0.535950
0.000023; -0.072388; 0.544373
0.000045; -0.137817; 0.522583
0.000068; -0.198059; 0.472595
0.000091; -0.246826; 0.396729
0.000113; -0.280762; 0.302063
0.000136; -0.299866; 0.190857
0.000159; -0.300110; 0.070923
0.000181; -0.284729; -0.053467
0.000204; -0.251892; -0.175964
0.000227; -0.206787; -0.290710
0.000249; -0.150391; -0.393311
0.000272; -0.085266; -0.475159
0.000295; -0.015869; -0.532043
0.000317; 0.055847; -0.557007
0.000340; 0.121460; -0.548828
0.000363; 0.183655; -0.508118
0.000385; 0.235657; -0.437927
0.000408; 0.275085; -0.344299
0.000431; 0.298645; -0.234192
0.000454; 0.306152; -0.111572
0.000476; 0.297791; 0.015381
0.000499; 0.270935; 0.140320
0.000522; 0.233398; 0.258728
0.000544; 0.182495; 0.362915
0.000567; 0.119690; 0.447754
0.000590; 0.054260; 0.508362
0.000612; -0.017578; 0.539856
0.000635; -0.087708; 0.540466
0.000658; -0.155029; 0.510071
0.000680; -0.210144; 0.452820
0.000703; -0.256714; 0.371338
0.000726; -0.287720; 0.271240
0.000748; -0.301392; 0.157471
0.000771; -0.297791; 0.035522
0.000794; -0.276978; -0.088257
0.000816; -0.242920; -0.209412
0.000839; -0.192261; -0.321472
0.000862; -0.132263; -0.418640
0.000884; -0.065918; -0.494202
0.000907; 0.003662; -0.542236
0.000930; 0.074463; -0.559082
0.000952; 0.139587; -0.541687
0.000975; 0.199585; -0.491699
0.000998; 0.248413; -0.415344
0.001020; 0.283020; -0.316589
0.001043; 0.302429; -0.201599
0.001066; 0.306702; -0.077454
0.001088; 0.292786; 0.049194
0.001111; 0.262512; 0.173584
0.001134; 0.221008; 0.288635
0.001156; 0.166809; 0.388184
0.001179; 0.105652; 0.467163
0.001202; 0.033752; 0.519470
0.001224; -0.036194; 0.542542
0.001247; -0.103821; 0.535217
0.001270; -0.168884; 0.497620
0.001293; -0.224670; 0.432373
0.001315; -0.265686; 0.346375
0.001338; -0.291809; 0.241882
0.001361; -0.299561; 0.125000
0.001383; -0.292114; 0.002197
0.001406; -0.267822; -0.121765
0.001429; -0.225891; -0.240540
0.001451; -0.175476; -0.349731
0.001474; -0.114624; -0.441589
0.001497; -0.048218; -0.510437
0.001519; 0.024109; -0.549927
0.001542; 0.094116; -0.556580
0.001565; 0.158813; -0.530334
0.001587; 0.214478; -0.473328
0.001610; 0.260986; -0.389404
0.001633; 0.289246; -0.286499
0.001655; 0.306458; -0.167908
0.001678; 0.304810; -0.042847
0.001701; 0.285583; 0.084229
0.001723; 0.252686; 0.206787
0.001746; 0.206116; 0.317566
0.001769; 0.150635; 0.412903
0.001791; 0.085205; 0.484619
0.001814; 0.016541; 0.529846
0.001837; -0.055481; 0.544678
0.001859; -0.123169; 0.528687
0.001882; -0.186279; 0.482910
0.001905; -0.236877; 0.411804
0.001927; -0.274170; 0.320007
0.001950; -0.296631; 0.210999
0.001973; -0.300537; 0.092468
0.001995; -0.288208; -0.031311
0.002018; -0.259705; -0.154297
0.002041; -0.215149; -0.270630
0.002063; -0.159607; -0.375305
0.002086; -0.097168; -0.461487
0.002109; -0.028320; -0.523010
0.002132; 0.042908; -0.554016
0.002154; 0.109741; -0.552124
0.002177; 0.173279; -0.517212
0.002200; 0.227600; -0.451477
0.002222; 0.268250; -0.362305
0.002245; 0.295593; -0.254089
0.002268; 0.306213; -0.133362
0.002290; 0.301575; -0.006531
0.002313; 0.278137; 0.119690
0.002336; 0.241089; 0.239624
0.002358; 0.193115; 0.347351
0.002381; 0.132690; 0.435547
0.002404; 0.066467; 0.501160
0.002426; -0.003357; 0.538269
0.002449; -0.076111; 0.544373
0.002472; -0.141724; 0.519775
0.002494; -0.201050; 0.467163
0.002517; -0.250610; 0.389771
0.002540; -0.282654; 0.293335
0.002562; -0.301819; 0.181152
0.002585; -0.299500; 0.060913
0.002608; -0.282471; -0.063232
0.002630; -0.249329; -0.185181
0.002653; -0.202332; -0.298889
0.002676; -0.145203; -0.398987
0.002698; -0.078857; -0.478882
0.002721; -0.010437; -0.532898
0.002744; 0.059509; -0.555054
0.002766; 0.127563; -0.543762
0.002789; 0.189148; -0.499146
0.002812; 0.237976; -0.427307
0.002834; 0.276245; -0.332153
0.002857; 0.299133; -0.219666
0.002880; 0.304382; -0.097290
0.002902; 0.294312; 0.029846
0.002925; 0.267517; 0.154541
0.002948; 0.227478; 0.271484
0.002971; 0.175537; 0.374268
0.002993; 0.114197; 0.457092
0.003016; 0.044800; 0.515503
0.003039; -0.025085; 0.543762
0.003061; -0.094055; 0.541748
0.003084; -0.159180; 0.509155
0.003107; -0.216125; 0.449280
0.003129; -0.261169; 0.365417
0.003152; -0.288330; 0.264221
0.003175; -0.302063; 0.149475
0.003197; -0.297546; 0.027344
0.003220; -0.275208; -0.096558
0.003243; -0.239319; -0.217773
0.003265; -0.188049; -0.328064
0.003288; -0.129272; -0.423828
0.003311; -0.061646; -0.496765
0.003333; 0.010132; -0.542358
0.003356; 0.077881; -0.555847
0.003379; 0.143616; -0.535217
0.003401; 0.203491; -0.483032
0.003424; 0.250488; -0.404236
0.003447; 0.283020; -0.303894
0.003469; 0.303040; -0.187561
0.003492; 0.304077; -0.063416
0.003515; 0.288269; 0.063904
0.003537; 0.258179; 0.187378
0.003560; 0.214355; 0.300842
0.003583; 0.159485; 0.399048
0.003605; 0.096741; 0.475891
0.003628; 0.027039; 0.526245
0.003651; -0.044373; 0.546326
0.003673; -0.114624; 0.535583
0.003696; -0.176697; 0.495300
0.003719; -0.230713; 0.428650
0.003741; -0.270203; 0.340027
0.003764; -0.296143; 0.233704
0.003787; -0.304199; 0.116516
0.003810; -0.293884; -0.006653
0.003832; -0.269348; -0.130554
0.003855; -0.226685; -0.248230
0.003878; -0.174194; -0.356140
0.003900; -0.111328; -0.446045
0.003923; -0.042725; -0.511597
0.003946; 0.028137; -0.549255
0.003968; 0.095398; -0.553650
0.003991; 0.159119; -0.523865
0.004014; 0.217529; -0.463684
0.004036; 0.260986; -0.378357
0.004059; 0.289795; -0.273315
0.004082; 0.303284; -0.154480
0.004104; 0.300293; -0.028320
0.004127; 0.282959; 0.098572
0.004150; 0.245422; 0.219421
0.004172; 0.200195; 0.329895
0.004195; 0.142273; 0.422424
0.004218; 0.074524; 0.491577
0.004240; 0.005859; 0.534485
0.004263; -0.065430; 0.546387
0.004286; -0.132324; 0.527405
0.004308; -0.192993; 0.479492
0.004331; -0.244141; 0.406128
0.004354; -0.280518; 0.312561
0.004376; -0.299377; 0.203491
0.004399; -0.303040; 0.083496
0.004422; -0.289307; -0.040588
0.004444; -0.258789; -0.163391
0.004467; -0.213806; -0.279602
0.004490; -0.158508; -0.382690
0.004512; -0.093994; -0.466675
0.004535; -0.024902; -0.526062
0.004558; 0.046387; -0.553955
0.004580; 0.114075; -0.548950
0.004603; 0.175171; -0.510559
0.004626; 0.227783; -0.443176
0.004649; 0.267944; -0.351868
0.004671; 0.294556; -0.241699
0.004694; 0.303223; -0.120544
0.004717; 0.294861; 0.006348
0.004739; 0.270630; 0.131836
0.004762; 0.235657; 0.251343
0.004785; 0.185303; 0.357361
0.004807; 0.122864; 0.443848
0.004830; 0.056824; 0.507202
0.004853; -0.013062; 0.541382
0.004875; -0.084900; 0.544189
0.004898; -0.151733; 0.517212
0.004921; -0.209656; 0.461792
0.004943; -0.254883; 0.382935
0.004966; -0.288452; 0.284241
0.004989; -0.305115; 0.170776
0.005011; -0.301575; 0.049377
0.005034; -0.284363; -0.074524
0.005057; -0.250183; -0.196411
0.005079; -0.200439; -0.309326
0.005102; -0.142029; -0.407532
0.005125; -0.076233; -0.485474
0.005147; -0.005005; -0.536682
0.005170; 0.063965; -0.556519
0.005193; 0.130066; -0.541443
0.005215; 0.189880; -0.495117
0.005238; 0.240723; -0.420105
0.005261; 0.276306; -0.323853
0.005283; 0.297546; -0.209656
0.005306; 0.302734; -0.086426
0.005329; 0.292358; 0.040771
0.005351; 0.262390; 0.165405
0.005374; 0.220764; 0.281250
0.005397; 0.168213; 0.382874
0.005420; 0.105164; 0.463684
0.005442; 0.037109; 0.518799
0.005465; -0.035828; 0.544434
0.005488; -0.104797; 0.539551
0.005510; -0.169495; 0.504211
0.005533; -0.225220; 0.441895
0.005556; -0.266418; 0.357605
0.005578; -0.294861; 0.254517
0.005601; -0.306152; 0.138672
0.005624; -0.297913; 0.016357
0.005646; -0.276733; -0.108032
0.005669; -0.238647; -0.228271
0.005692; -0.187500; -0.337524
0.005714; -0.127136; -0.431213
0.005737; -0.059082; -0.502686
0.005760; 0.010864; -0.545044
0.005782; 0.082092; -0.555298
0.005805; 0.144958; -0.532349
0.005828; 0.203552; -0.477173
0.005850; 0.250732; -0.395630
0.005873; 0.280518; -0.294189
0.005896; 0.299377; -0.177246
0.005918; 0.298767; -0.051758
0.005941; 0.284363; 0.075500
0.005964; 0.252441; 0.197876
0.005986; 0.208557; 0.311157
0.006009; 0.150452; 0.406677
0.006032; 0.086548; 0.481140
0.006054; 0.018250; 0.529175
0.006077; -0.054138; 0.546570
0.006100; -0.122864; 0.533081
0.006122; -0.185120; 0.489929
0.006145; -0.237061; 0.420898
0.006168; -0.275757; 0.330627
0.006190; -0.298218; 0.223999
0.006213; -0.304749; 0.105408
0.006236; -0.293884; -0.018250
0.006259; -0.266663; -0.141907
0.006281; -0.224854; -0.259094
0.006304; -0.169006; -0.364868
0.006327; -0.107239; -0.453491
0.006349; -0.039307; -0.516785
0.006372; 0.032959; -0.550659
0.006395; 0.101013; -0.552185
0.006417; 0.165161; -0.519592
0.006440; 0.217590; -0.457581
0.006463; 0.260681; -0.370117
0.006485; 0.289734; -0.263245
0.006508; 0.300659; -0.143494
0.006531; 0.295593; -0.017151
0.006553; 0.276062; 0.109070
0.006576; 0.239136; 0.230164
0.006599; 0.191284; 0.338806
0.006621; 0.132080; 0.429382
0.006644; 0.065430; 0.497192
0.006667; -0.004028; 0.536133
0.006689; -0.075439; 0.545776
0.006712; -0.142273; 0.524231
0.006735; -0.203613; 0.473267
0.006757; -0.250610; 0.398804
0.006780; -0.287048; 0.303406
0.006803; -0.305847; 0.192444
0.006825; -0.306946; 0.071777
0.006848; -0.290588; -0.051636
0.006871; -0.257446; -0.174255
0.006893; -0.213440; -0.289612
0.006916; -0.155457; -0.390991
0.006939; -0.090698; -0.473389
0.006961; -0.021545; -0.529419
0.006984; 0.047180; -0.555115
0.007007; 0.115662; -0.546509
0.007029; 0.177979; -0.505493
0.007052; 0.228699; -0.435791
0.007075; 0.268860; -0.342590
0.007098; 0.292603; -0.231934
0.007120; 0.301758; -0.109314
0.007143; 0.292175; 0.017761
0.007166; 0.266418; 0.143555
0.007188; 0.226990; 0.261230
0.007211; 0.175232; 0.365295
0.007234; 0.114563; 0.450256
0.007256; 0.047974; 0.510803
0.007279; -0.024475; 0.542358
0.007302; -0.094788; 0.542725
0.007324; -0.161072; 0.512451
0.007347; -0.216980; 0.455383
0.007370; -0.261292; 0.374634
0.007392; -0.293091; 0.274231
0.007415; -0.307556; 0.160522
0.007438; -0.303345; 0.038635
0.007460; -0.282837; -0.085632
0.007483; -0.247864; -0.206421
0.007506; -0.198425; -0.318359
0.007528; -0.139587; -0.415588
0.007551; -0.072021; -0.491028
0.007574; -0.002136; -0.539917
0.007596; 0.068298; -0.555786
0.007619; 0.135071; -0.538330
0.007642; 0.191711; -0.489624
0.007664; 0.243408; -0.412109
0.007687; 0.277344; -0.313599
0.007710; 0.296387; -0.198975
0.007732; 0.299927; -0.074951
0.007755; 0.285156; 0.052612
0.007778; 0.257324; 0.176636
0.007800; 0.212036; 0.291199
0.007823; 0.159912; 0.391052
0.007846; 0.096313; 0.470032
0.007868; 0.027649; 0.523010
0.007891; -0.043640; 0.545593
0.007914; -0.113403; 0.537354
0.007937; -0.178162; 0.499329
0.007959; -0.231506; 0.435059
0.007982; -0.272461; 0.348633
0.008005; -0.299622; 0.244263
0.008027; -0.307739; 0.127747
0.008050; -0.301270; 0.004456
0.008073; -0.274841; -0.119324
0.008095; -0.234680; -0.238220
0.008118; -0.183289; -0.346924
0.008141; -0.120850; -0.438232
0.008163; -0.052795; -0.506958
0.008186; 0.014893; -0.547607
0.008209; 0.085083; -0.554504
0.008231; 0.151062; -0.528381
0.008254; 0.207336; -0.470886
0.008277; 0.253418; -0.387207
0.008299; 0.283752; -0.283630
0.008322; 0.297119; -0.166138
0.008345; 0.296387; -0.040405
0.008367; 0.278625; 0.086914
0.008390; 0.245361; 0.208984
0.008413; 0.201172; 0.320618
0.008435; 0.143616; 0.414001
0.008458; 0.078247; 0.486206
0.008481; 0.008545; 0.531311
0.008503; -0.061890; 0.545715
0.008526; -0.130371; 0.529907
0.008549; -0.193359; 0.484009
0.008571; -0.245178; 0.412842
0.008594; -0.280090; 0.321228
0.008617; -0.304382; 0.212402
0.008639; -0.309631; 0.093201
0.008662; -0.296692; -0.030945
0.008685; -0.265259; -0.153320
0.008707; -0.221558; -0.270264
0.008730; -0.168640; -0.375549
0.008753; -0.103333; -0.461426
0.008776; -0.035034; -0.522949
0.008798; 0.036621; -0.553711
0.008821; 0.103455; -0.552124
0.008844; 0.165588; -0.516785
0.008866; 0.219910; -0.451355
0.008889; 0.261475; -0.362671
0.008912; 0.289246; -0.254333
0.008934; 0.299194; -0.133667
0.008957; 0.292908; -0.007507
0.008980; 0.272095; 0.118652
0.009002; 0.236389; 0.238953
0.009025; 0.186462; 0.346191
0.009048; 0.126465; 0.434631
0.009070; 0.059753; 0.499634
0.009093; -0.010864; 0.537292
0.009116; -0.080017; 0.543579
0.009138; -0.148193; 0.518494
0.009161; -0.207886; 0.465637
0.009184; -0.255798; 0.388245
0.009206; -0.288879; 0.291321
0.009229; -0.304749; 0.179626
0.009252; -0.304687; 0.058960
0.009274; -0.288086; -0.065308
0.009297; -0.254822; -0.187317
0.009320; -0.208801; -0.301636
0.009342; -0.150269; -0.401428
0.009365; -0.083374; -0.481323
0.009388; -0.014038; -0.534912
0.009410; 0.055237; -0.557434
0.009433; 0.122925; -0.546265
0.009456; 0.184082; -0.501892
0.009478; 0.233337; -0.430298
0.009501; 0.271667; -0.335144
0.009524; 0.294922; -0.222473
0.009546; 0.301331; -0.099854
0.009569; 0.290405; 0.027161
0.009592; 0.262451; 0.151794
0.009615; 0.223145; 0.269592
0.009637; 0.171082; 0.372192
0.009660; 0.109375; 0.455078
0.009683; 0.042969; 0.513672
0.009705; -0.029724; 0.541931
0.009728; -0.099365; 0.539490
0.009751; -0.166809; 0.506592
0.009773; -0.221924; 0.446777
0.009796; -0.264404; 0.364319
0.009819; -0.294250; 0.262878
0.009841; -0.306030; 0.147949
0.009864; -0.300842; 0.026184
0.009887; -0.280579; -0.098511
0.009909; -0.242798; -0.218750
0.009932; -0.192078; -0.329346
0.009955; -0.133728; -0.425171
0.009977; -0.064819; -0.498901
0.010000; 0.004944; -0.544006
0.010023; 0.074341; -0.557617
0.010045; 0.140381; -0.536499
0.010068; 0.199219; -0.484375
0.010091; 0.246704; -0.405396
0.010113; 0.278931; -0.305298
0.010136; 0.296936; -0.189331
0.010159; 0.299561; -0.064270
0.010181; 0.284241; 0.062622
0.010204; 0.254639; 0.186890
0.010227; 0.209900; 0.299866
0.010249; 0.154114; 0.397766
0.010272; 0.091187; 0.474792
0.010295; 0.021606; 0.524963
0.010317; -0.050476; 0.545166
0.010340; -0.117432; 0.534973
0.010363; -0.182129; 0.494080
0.010385; -0.235779; 0.427246
0.010408; -0.275085; 0.339172
0.010431; -0.300842; 0.233093
0.010454; -0.307129; 0.116028
0.010476; -0.296204; -0.007385
0.010499; -0.271362; -0.131104
0.010522; -0.231140; -0.249390
0.010544; -0.176880; -0.356995
0.010567; -0.113525; -0.446106
0.010590; -0.046021; -0.512817
0.010612; 0.022461; -0.550354
0.010635; 0.093201; -0.553894
0.010658; 0.156982; -0.524353
0.010680; 0.212646; -0.464417
0.010703; 0.256226; -0.378906
0.010726; 0.285095; -0.273499
0.010748; 0.300293; -0.154663
0.010771; 0.297913; -0.028259
0.010794; 0.278076; 0.098022
0.010816; 0.244324; 0.219788
0.010839; 0.196411; 0.330322
0.010862; 0.138184; 0.422791
0.010884; 0.072205; 0.492432
0.010907; 0.002747; 0.534973
0.010930; -0.067871; 0.547180
0.010952; -0.137146; 0.527893
0.010975; -0.198120; 0.479980
0.010998; -0.247742; 0.407043
0.011020; -0.283936; 0.313660
0.011043; -0.304626; 0.204224
0.011066; -0.306580; 0.084717
0.011088; -0.292053; -0.038940
0.011111; -0.261658; -0.161987
0.011134; -0.218506; -0.277954
0.011156; -0.162781; -0.381104
0.011179; -0.097412; -0.464783
0.011202; -0.028015; -0.524109
0.011224; 0.041199; -0.552551
0.011247; 0.110596; -0.547668
0.011270; 0.171692; -0.509460
0.011293; 0.225037; -0.442139
0.011315; 0.265686; -0.350464
0.011338; 0.290100; -0.241394
0.011361; 0.300659; -0.119629
0.011383; 0.293396; 0.007141
0.011406; 0.268738; 0.133118
0.011429; 0.229980; 0.252197
0.011451; 0.180847; 0.357910
0.011474; 0.120361; 0.445068
0.011497; 0.053223; 0.507080
0.011519; -0.018555; 0.541321
0.011542; -0.087402; 0.545105
0.011565; -0.154358; 0.517578
0.011587; -0.214172; 0.462341
0.011610; -0.259521; 0.383789
0.011633; -0.291748; 0.285095
0.011655; -0.307373; 0.171997
0.011678; -0.304871; 0.050659
0.011701; -0.286682; -0.073547
0.011723; -0.253052; -0.194824
0.011746; -0.204102; -0.307983
0.011769; -0.143677; -0.406433
0.011791; -0.079163; -0.484680
0.011814; -0.010376; -0.535706
0.011837; 0.060791; -0.554993
0.011859; 0.128479; -0.540344
0.011882; 0.187439; -0.493713
0.011905; 0.236816; -0.419739
0.011927; 0.274475; -0.322205
0.011950; 0.296143; -0.208984
0.011973; 0.300659; -0.085449
0.011995; 0.287781; 0.041443
0.012018; 0.260193; 0.166382
0.012041; 0.218018; 0.282043
0.012063; 0.165955; 0.383545
0.012086; 0.104126; 0.464417
0.012109; 0.034058; 0.519409
0.012132; -0.037415; 0.545471
0.012154; -0.107361; 0.540405
0.012177; -0.170654; 0.505066
0.012200; -0.225098; 0.442993
0.012222; -0.267944; 0.358459
0.012245; -0.296082; 0.255493
0.012268; -0.306519; 0.139038
0.012290; -0.299683; 0.017029
0.012313; -0.276672; -0.107178
0.012336; -0.238953; -0.227722
0.012358; -0.187805; -0.336304
0.012381; -0.125366; -0.430298
0.012404; -0.061462; -0.502136
0.012426; 0.011169; -0.544312
0.012449; 0.080933; -0.554382
0.012472; 0.144714; -0.530823
0.012494; 0.204102; -0.476013
0.012517; 0.248840; -0.395020
0.012540; 0.281555; -0.292969
0.012562; 0.298950; -0.175964
0.012585; 0.298035; -0.050964
0.012608; 0.281677; 0.075806
0.012630; 0.252747; 0.199402
0.012653; 0.205383; 0.311890
0.012676; 0.150696; 0.407959
0.012698; 0.086792; 0.482605
0.012721; 0.015991; 0.529785
0.012744; -0.054871; 0.547424
0.012766; -0.124634; 0.533875
0.012789; -0.185547; 0.491028
0.012812; -0.240234; 0.421753
0.012834; -0.278137; 0.331299
0.012857; -0.299866; 0.224731
0.012880; -0.307312; 0.106140
0.012902; -0.296082; -0.017578
0.012925; -0.266602; -0.140381
0.012948; -0.225220; -0.258118
0.012971; -0.172363; -0.364380
0.012993; -0.109436; -0.452759
0.013016; -0.039490; -0.516113
0.013039; 0.031006; -0.550476
0.013061; 0.099915; -0.551453
0.013084; 0.163574; -0.519287
0.013107; 0.219543; -0.456177
0.013129; 0.261963; -0.368835
0.013152; 0.288940; -0.262573
0.013175; 0.301331; -0.142761
0.013197; 0.297974; -0.015991
0.013220; 0.275146; 0.110168
0.013243; 0.240234; 0.231079
0.013265; 0.192444; 0.339966
0.013288; 0.132629; 0.429810
0.013311; 0.067383; 0.497681
0.013333; -0.002441; 0.537720
0.013356; -0.073853; 0.546265
0.013379; -0.140503; 0.524597
0.013401; -0.200317; 0.474060
0.013424; -0.250427; 0.399170
0.013447; -0.284607; 0.303772
0.013469; -0.304626; 0.193115
0.013492; -0.306580; 0.072754
0.013515; -0.288452; -0.051208
0.013537; -0.256531; -0.173340
0.013560; -0.210815; -0.288879
0.013583; -0.154480; -0.390808
0.013605; -0.089783; -0.473083
0.013628; -0.018433; -0.528870
0.013651; 0.049744; -0.554749
0.013673; 0.117920; -0.546387
0.013696; 0.180786; -0.505310
0.013719; 0.232056; -0.435242
0.013741; 0.271912; -0.341797
0.013764; 0.294739; -0.230896
0.013787; 0.302185; -0.109314
0.013810; 0.294373; 0.018250
0.013832; 0.269531; 0.143677
0.013855; 0.229370; 0.261780
0.013878; 0.179138; 0.366394
0.013900; 0.117126; 0.451172
0.013923; 0.049927; 0.511780
0.013946; -0.021362; 0.542542
0.013968; -0.092285; 0.543091
0.013991; -0.157532; 0.513184
0.014014; -0.214844; 0.455750
0.014036; -0.259338; 0.374451
0.014059; -0.289795; 0.274780
0.014082; -0.303650; 0.160828
0.014104; -0.299805; 0.039124
0.014127; -0.279907; -0.085266
0.014150; -0.243896; -0.206055
0.014172; -0.194763; -0.317993
0.014195; -0.136597; -0.415649
0.014218; -0.069641; -0.491028
0.014240; 0.001953; -0.538757
0.014263; 0.068604; -0.555725
0.014286; 0.133850; -0.538574
0.014308; 0.193665; -0.488708
0.014331; 0.242737; -0.411865
0.014354; 0.278503; -0.313232
0.014376; 0.297729; -0.198975
0.014399; 0.301941; -0.074585
0.014422; 0.289001; 0.052490
0.014444; 0.259583; 0.176453
0.014467; 0.216187; 0.291504
0.014490; 0.164001; 0.391785
0.014512; 0.099243; 0.469727
0.014535; 0.029907; 0.522522
0.014558; -0.040771; 0.545898
0.014580; -0.110840; 0.538025
