Time [s];Amplitude;Amplitude;
0.000000; 0.027466; 0.058350
0.000023; 0.043640; 0.071960
0.000045; 0.059875; 0.085754
0.000068; 0.076233; 0.099243
0.000091; 0.092529; 0.112488
0.000113; 0.109375; 0.125488
0.000136; 0.123901; 0.138306
0.000159; 0.140564; 0.151123
0.000181; 0.154175; 0.162598
0.000204; 0.169739; 0.174866
0.000227; 0.185913; 0.186768
0.000249; 0.199036; 0.197632
0.000272; 0.213684; 0.208313
0.000295; 0.229187; 0.219055
0.000317; 0.241455; 0.228271
0.000340; 0.254089; 0.237854
0.000363; 0.268127; 0.246826
0.000385; 0.281616; 0.255676
0.000408; 0.293396; 0.263977
0.000431; 0.302795; 0.271179
0.000454; 0.312805; 0.278137
0.000476; 0.322754; 0.284302
0.000499; 0.329773; 0.289856
0.000522; 0.339050; 0.294922
0.000544; 0.348206; 0.299988
0.000567; 0.355042; 0.303711
0.000590; 0.361023; 0.306396
0.000612; 0.366394; 0.309204
0.000635; 0.372742; 0.310852
0.000658; 0.379761; 0.312256
0.000680; 0.383606; 0.313049
0.000703; 0.386902; 0.312805
0.000726; 0.391968; 0.312134
0.000748; 0.392639; 0.310486
0.000771; 0.397461; 0.308716
0.000794; 0.395569; 0.305664
0.000816; 0.395508; 0.302856
0.000839; 0.395203; 0.298828
0.000862; 0.393066; 0.294800
0.000884; 0.392944; 0.290283
0.000907; 0.391541; 0.285828
0.000930; 0.386719; 0.279846
0.000952; 0.384521; 0.273804
0.000975; 0.380005; 0.267578
0.000998; 0.373047; 0.260254
0.001020; 0.371033; 0.253540
0.001043; 0.361572; 0.245239
0.001066; 0.354858; 0.237305
0.001088; 0.347046; 0.229492
0.001111; 0.338440; 0.221069
0.001134; 0.326660; 0.211731
0.001156; 0.315369; 0.202759
0.001179; 0.306885; 0.194458
0.001202; 0.293701; 0.185120
0.001224; 0.281799; 0.176270
0.001247; 0.268066; 0.165955
0.001270; 0.253113; 0.155457
0.001293; 0.239746; 0.146057
0.001315; 0.225586; 0.135620
0.001338; 0.210388; 0.124878
0.001361; 0.194336; 0.114075
0.001383; 0.179260; 0.102600
0.001406; 0.164124; 0.091125
0.001429; 0.148010; 0.079468
0.001451; 0.132507; 0.067505
0.001474; 0.116821; 0.055908
0.001497; 0.100586; 0.043701
0.001519; 0.084167; 0.031494
0.001542; 0.068359; 0.018616
0.001565; 0.052734; 0.006714
0.001587; 0.035461; -0.006042
0.001610; 0.017883; -0.018555
0.001633; 0.000916; -0.030945
0.001655; -0.015198; -0.044312
0.001678; -0.030579; -0.055786
0.001701; -0.048218; -0.068848
0.001723; -0.065918; -0.081604
0.001746; -0.081848; -0.093872
0.001769; -0.098450; -0.105896
0.001791; -0.113831; -0.117310
0.001814; -0.130981; -0.130249
0.001837; -0.146118; -0.141724
0.001859; -0.161682; -0.153320
0.001882; -0.176514; -0.164612
0.001905; -0.192444; -0.175659
0.001927; -0.206238; -0.186340
0.001950; -0.220337; -0.197205
0.001973; -0.235535; -0.207886
0.001995; -0.249634; -0.218140
0.002018; -0.262207; -0.227112
0.002041; -0.275757; -0.236328
0.002063; -0.289062; -0.244873
0.002086; -0.298706; -0.253113
0.002109; -0.310120; -0.261597
0.002132; -0.319885; -0.268433
0.002154; -0.330383; -0.275940
0.002177; -0.338379; -0.282532
0.002200; -0.346497; -0.288208
0.002222; -0.353699; -0.293640
0.002245; -0.359558; -0.298096
0.002268; -0.367004; -0.302979
0.002290; -0.372864; -0.306458
0.002313; -0.377869; -0.309692
0.002336; -0.384399; -0.312256
0.002358; -0.389526; -0.314087
0.002381; -0.390991; -0.315063
0.002404; -0.394043; -0.315063
0.002426; -0.395508; -0.314880
0.002449; -0.397217; -0.313965
0.002472; -0.399231; -0.312256
0.002494; -0.398804; -0.310242
0.002517; -0.398865; -0.307739
0.002540; -0.396606; -0.303894
0.002562; -0.392334; -0.299683
0.002585; -0.390259; -0.295044
0.002608; -0.387024; -0.290039
0.002630; -0.382202; -0.284119
0.002653; -0.376709; -0.277710
0.002676; -0.371948; -0.271240
0.002698; -0.365173; -0.263733
0.002721; -0.356750; -0.255981
0.002744; -0.349060; -0.247864
0.002766; -0.339417; -0.239807
0.002789; -0.328918; -0.230591
0.002812; -0.317444; -0.221252
0.002834; -0.306030; -0.212158
0.002857; -0.293884; -0.202148
0.002880; -0.281372; -0.192566
0.002902; -0.268005; -0.182495
0.002925; -0.256042; -0.171997
0.002948; -0.241028; -0.161438
0.002971; -0.227417; -0.151001
0.002993; -0.213562; -0.139099
0.003016; -0.198792; -0.127014
0.003039; -0.184509; -0.115173
0.003061; -0.170349; -0.103149
0.003084; -0.154724; -0.090637
0.003107; -0.139465; -0.078247
0.003129; -0.123962; -0.065125
0.003152; -0.106506; -0.050964
0.003175; -0.092224; -0.038086
0.003197; -0.075745; -0.024170
0.003220; -0.059082; -0.010254
0.003243; -0.041138; 0.003906
0.003265; -0.025879; 0.017029
0.003288; -0.008667; 0.031128
0.003311; 0.008118; 0.045227
0.003333; 0.023499; 0.058777
0.003356; 0.041138; 0.072815
0.003379; 0.056519; 0.086426
0.003401; 0.072327; 0.100220
0.003424; 0.088074; 0.112793
0.003447; 0.104431; 0.126343
0.003469; 0.120667; 0.138672
0.003492; 0.136597; 0.151184
0.003515; 0.153931; 0.163879
0.003537; 0.168091; 0.175476
0.003560; 0.182556; 0.186523
0.003583; 0.197571; 0.197815
0.003605; 0.209961; 0.208740
0.003628; 0.227417; 0.218872
0.003651; 0.242371; 0.228699
0.003673; 0.255371; 0.238098
0.003696; 0.268066; 0.246887
0.003719; 0.279907; 0.255371
0.003741; 0.290710; 0.262878
0.003764; 0.300842; 0.270203
0.003787; 0.312988; 0.277100
0.003810; 0.320251; 0.283325
0.003832; 0.331360; 0.289612
0.003855; 0.339661; 0.294922
0.003878; 0.346436; 0.299072
0.003900; 0.356445; 0.303223
0.003923; 0.360779; 0.305908
0.003946; 0.367554; 0.308655
0.003968; 0.372559; 0.310303
0.003991; 0.379333; 0.311646
0.004014; 0.384094; 0.312561
0.004036; 0.386658; 0.311890
0.004059; 0.390259; 0.311829
0.004082; 0.393616; 0.310669
0.004104; 0.393738; 0.308289
0.004127; 0.393982; 0.305786
0.004150; 0.396423; 0.302856
0.004172; 0.393860; 0.298950
0.004195; 0.391357; 0.294617
0.004218; 0.389893; 0.290100
0.004240; 0.387817; 0.284851
0.004263; 0.384827; 0.279602
0.004286; 0.380859; 0.273865
0.004308; 0.377197; 0.267517
0.004331; 0.372009; 0.259888
0.004354; 0.367126; 0.252869
0.004376; 0.359802; 0.245300
0.004399; 0.353088; 0.237183
0.004422; 0.344727; 0.229126
0.004444; 0.334778; 0.220276
0.004467; 0.324036; 0.211731
0.004490; 0.313293; 0.202454
0.004512; 0.302246; 0.193665
0.004535; 0.289795; 0.184265
0.004558; 0.277344; 0.175232
0.004580; 0.265869; 0.165283
0.004603; 0.252563; 0.155518
0.004626; 0.237061; 0.145752
0.004649; 0.223877; 0.135193
0.004671; 0.208313; 0.124512
0.004694; 0.193726; 0.113525
0.004717; 0.176819; 0.102234
0.004739; 0.162231; 0.090881
0.004762; 0.145813; 0.079102
0.004785; 0.129395; 0.067383
0.004807; 0.114929; 0.055542
0.004830; 0.098755; 0.043518
0.004853; 0.081421; 0.031311
0.004875; 0.065613; 0.018677
0.004898; 0.051270; 0.006348
0.004921; 0.033386; -0.005981
0.004943; 0.017761; -0.018372
0.004966; 0.000671; -0.030884
0.004989; -0.015686; -0.043274
0.005011; -0.031921; -0.055847
0.005034; -0.048767; -0.068481
0.005057; -0.063293; -0.080811
0.005079; -0.082031; -0.093628
0.005102; -0.097107; -0.105591
0.005125; -0.114075; -0.117737
0.005147; -0.131653; -0.129578
0.005170; -0.146484; -0.141479
0.005193; -0.164001; -0.153259
0.005215; -0.177063; -0.164246
0.005238; -0.192505; -0.175842
0.005261; -0.209045; -0.186584
0.005283; -0.222717; -0.197266
0.005306; -0.237000; -0.207764
0.005329; -0.250977; -0.217712
0.005351; -0.263733; -0.227356
0.005374; -0.278809; -0.236633
0.005397; -0.288574; -0.244812
0.005420; -0.302368; -0.253418
0.005442; -0.311890; -0.261658
0.005465; -0.322327; -0.268616
0.005488; -0.332275; -0.275757
0.005510; -0.339050; -0.282043
0.005533; -0.348694; -0.288086
0.005556; -0.353638; -0.293396
0.005578; -0.363770; -0.298462
0.005601; -0.369446; -0.302856
0.005624; -0.376343; -0.306885
0.005646; -0.381287; -0.309937
0.005669; -0.385071; -0.311890
0.005692; -0.390381; -0.313904
0.005714; -0.394043; -0.315063
0.005737; -0.396667; -0.315308
0.005760; -0.398437; -0.314941
0.005782; -0.400208; -0.314331
0.005805; -0.401001; -0.312866
0.005828; -0.400024; -0.310059
0.005850; -0.398132; -0.307251
0.005873; -0.397156; -0.303589
0.005896; -0.396606; -0.299622
0.005918; -0.391846; -0.294861
0.005941; -0.386658; -0.289551
0.005964; -0.384583; -0.284424
0.005986; -0.378235; -0.278137
0.006009; -0.372681; -0.271179
0.006032; -0.365967; -0.263367
0.006054; -0.359741; -0.256470
0.006077; -0.351501; -0.248169
0.006100; -0.340454; -0.239685
0.006122; -0.330811; -0.231567
0.006145; -0.319092; -0.222046
0.006168; -0.309204; -0.212708
0.006190; -0.296082; -0.203125
0.006213; -0.283936; -0.192627
0.006236; -0.270874; -0.183167
0.006259; -0.256775; -0.173096
0.006281; -0.243286; -0.162476
0.006304; -0.228577; -0.151794
0.006327; -0.215515; -0.140259
0.006349; -0.199463; -0.128113
0.006372; -0.186829; -0.116943
0.006395; -0.171570; -0.104736
0.006417; -0.156494; -0.091675
0.006440; -0.141418; -0.079407
0.006463; -0.123474; -0.065979
0.006485; -0.109680; -0.053040
0.006508; -0.092407; -0.039490
0.006531; -0.074829; -0.025513
0.006553; -0.059265; -0.011719
0.006576; -0.043274; 0.001953
0.006599; -0.026001; 0.015808
0.006621; -0.009583; 0.029846
0.006644; 0.006653; 0.043335
0.006667; 0.023926; 0.056885
0.006689; 0.039551; 0.070923
0.006712; 0.055725; 0.084534
0.006735; 0.073486; 0.097839
0.006757; 0.090149; 0.111267
0.006780; 0.104675; 0.123779
0.006803; 0.121765; 0.136597
0.006825; 0.136841; 0.149353
0.006848; 0.152771; 0.161133
0.006871; 0.168091; 0.172913
0.006893; 0.182068; 0.184387
0.006916; 0.196899; 0.195435
0.006939; 0.212097; 0.206421
0.006961; 0.225159; 0.216003
0.006984; 0.240356; 0.225952
0.007007; 0.254028; 0.235535
0.007029; 0.264893; 0.244019
0.007052; 0.279480; 0.252625
0.007075; 0.290894; 0.260376
0.007098; 0.301636; 0.267883
0.007120; 0.311951; 0.274170
0.007143; 0.321533; 0.280823
0.007166; 0.329651; 0.287170
0.007188; 0.339722; 0.292236
0.007211; 0.347351; 0.296814
0.007234; 0.353027; 0.300293
0.007256; 0.361572; 0.303955
0.007279; 0.367554; 0.306091
0.007302; 0.373657; 0.308472
0.007324; 0.378357; 0.309753
0.007347; 0.382690; 0.310059
0.007370; 0.386963; 0.309937
0.007392; 0.389832; 0.309509
0.007415; 0.392395; 0.308228
0.007438; 0.393677; 0.305847
0.007460; 0.394348; 0.303589
0.007483; 0.395020; 0.300415
0.007506; 0.394104; 0.296814
0.007528; 0.393372; 0.292847
0.007551; 0.392029; 0.288147
0.007574; 0.388611; 0.282959
0.007596; 0.385132; 0.277527
0.007619; 0.382263; 0.271851
0.007642; 0.377930; 0.265137
0.007664; 0.374756; 0.258606
0.007687; 0.368286; 0.251404
0.007710; 0.360413; 0.243774
0.007732; 0.354370; 0.235535
0.007755; 0.345642; 0.227661
0.007778; 0.336365; 0.219360
0.007800; 0.327026; 0.210327
0.007823; 0.316223; 0.201660
0.007846; 0.305176; 0.192505
0.007868; 0.292847; 0.183350
0.007891; 0.280701; 0.174438
0.007914; 0.267395; 0.164124
0.007937; 0.252014; 0.153809
0.007959; 0.239014; 0.144165
0.007982; 0.225159; 0.133789
0.008005; 0.209595; 0.123169
0.008027; 0.195374; 0.112976
0.008050; 0.178833; 0.101196
0.008073; 0.164001; 0.089844
0.008095; 0.146179; 0.077942
0.008118; 0.131226; 0.066406
0.008141; 0.115601; 0.054565
0.008163; 0.099304; 0.042236
0.008186; 0.085083; 0.030518
0.008209; 0.067139; 0.017517
0.008231; 0.051575; 0.005310
0.008254; 0.033264; -0.007507
0.008277; 0.018005; -0.019165
0.008299; 0.002380; -0.031860
0.008322; -0.015259; -0.044617
0.008345; -0.030457; -0.056152
0.008367; -0.047241; -0.069153
0.008390; -0.064575; -0.081787
0.008413; -0.081604; -0.094055
0.008435; -0.098206; -0.105896
0.008458; -0.114136; -0.117615
0.008481; -0.130859; -0.129883
0.008503; -0.146301; -0.141663
0.008526; -0.162048; -0.153625
0.008549; -0.177917; -0.164673
0.008571; -0.193298; -0.175720
0.008594; -0.206848; -0.186157
0.008617; -0.221741; -0.197083
0.008639; -0.236572; -0.206970
0.008662; -0.251465; -0.217224
0.008685; -0.263000; -0.226013
0.008707; -0.275574; -0.235229
0.008730; -0.289001; -0.244263
0.008753; -0.300232; -0.252258
0.008776; -0.312378; -0.260132
0.008798; -0.321655; -0.267578
0.008821; -0.330994; -0.274536
0.008844; -0.339661; -0.281250
0.008866; -0.348145; -0.286865
0.008889; -0.354492; -0.291748
0.008912; -0.361389; -0.297119
0.008934; -0.368103; -0.301636
0.008957; -0.372986; -0.305420
0.008980; -0.380676; -0.308960
0.009002; -0.385010; -0.311218
0.009025; -0.388245; -0.312866
0.009048; -0.393677; -0.314209
0.009070; -0.394287; -0.314331
0.009093; -0.398193; -0.314331
0.009116; -0.400574; -0.313477
0.009138; -0.400024; -0.311584
0.009161; -0.402344; -0.309631
0.009184; -0.398254; -0.306396
0.009206; -0.397095; -0.303040
0.009229; -0.395264; -0.298645
0.009252; -0.392700; -0.294006
0.009274; -0.388306; -0.288879
0.009297; -0.383850; -0.282959
0.009320; -0.378052; -0.276672
0.009342; -0.373535; -0.270264
0.009365; -0.367004; -0.263000
0.009388; -0.359436; -0.255249
0.009410; -0.348999; -0.246826
0.009433; -0.339966; -0.238586
0.009456; -0.331177; -0.229736
0.009478; -0.319458; -0.221130
0.009501; -0.307861; -0.211121
0.009524; -0.295654; -0.201233
0.009546; -0.283386; -0.191528
0.009569; -0.268921; -0.181152
0.009592; -0.256165; -0.171082
0.009615; -0.242554; -0.160339
0.009637; -0.227356; -0.149597
0.009660; -0.212891; -0.137695
0.009683; -0.199463; -0.126282
0.009705; -0.184753; -0.114685
0.009728; -0.171326; -0.102051
0.009751; -0.155762; -0.089844
0.009773; -0.140198; -0.077209
0.009796; -0.124268; -0.063599
0.009819; -0.108582; -0.050232
0.009841; -0.090637; -0.036865
0.009864; -0.075012; -0.023132
0.009887; -0.058594; -0.009155
0.009909; -0.041077; 0.004639
0.009932; -0.025391; 0.018555
0.009955; -0.009827; 0.032288
0.009977; 0.008484; 0.046387
0.010000; 0.025024; 0.060364
0.010023; 0.040894; 0.074524
0.010045; 0.057068; 0.087646
0.010068; 0.073792; 0.100525
0.010091; 0.090088; 0.114014
0.010113; 0.107422; 0.127686
0.010136; 0.121826; 0.139771
0.010159; 0.137451; 0.152344
0.010181; 0.153503; 0.164490
0.010204; 0.168579; 0.176270
0.010227; 0.185181; 0.187866
0.010249; 0.197754; 0.198853
0.010272; 0.212158; 0.209717
0.010295; 0.226929; 0.219604
0.010317; 0.239929; 0.228943
0.010340; 0.256104; 0.239075
0.010363; 0.267700; 0.248108
0.010385; 0.280029; 0.256042
0.010408; 0.291565; 0.264221
0.010431; 0.302246; 0.271606
0.010454; 0.312439; 0.278198
0.010476; 0.321350; 0.283997
0.010499; 0.331299; 0.290466
0.010522; 0.339783; 0.295288
0.010544; 0.347900; 0.299744
0.010567; 0.354065; 0.303406
0.010590; 0.361816; 0.307068
0.010612; 0.366699; 0.309631
0.010635; 0.373169; 0.311096
0.010658; 0.379944; 0.312683
0.010680; 0.383179; 0.313171
0.010703; 0.386902; 0.312866
0.010726; 0.390137; 0.312988
0.010748; 0.393127; 0.311584
0.010771; 0.393066; 0.309021
0.010794; 0.395325; 0.306702
0.010816; 0.395447; 0.303406
0.010839; 0.394836; 0.300110
0.010862; 0.395752; 0.295959
0.010884; 0.392090; 0.291321
0.010907; 0.390259; 0.286499
0.010930; 0.386475; 0.280701
0.010952; 0.383362; 0.274109
0.010975; 0.379700; 0.267883
0.010998; 0.374207; 0.261047
0.011020; 0.370667; 0.254028
0.011043; 0.363220; 0.246460
0.011066; 0.355774; 0.238464
0.011088; 0.347168; 0.229980
0.011111; 0.337402; 0.221313
0.011134; 0.327576; 0.212524
0.011156; 0.317566; 0.203735
0.011179; 0.304443; 0.194580
0.011202; 0.294128; 0.185791
0.011224; 0.281799; 0.176270
0.011247; 0.266235; 0.166382
0.011270; 0.254578; 0.156433
0.011293; 0.240173; 0.146667
0.011315; 0.225342; 0.135925
0.011338; 0.211487; 0.125183
0.011361; 0.195862; 0.114258
0.011383; 0.181274; 0.103088
0.011406; 0.164368; 0.091797
0.011429; 0.149292; 0.080200
0.011451; 0.132690; 0.067871
0.011474; 0.117249; 0.056030
0.011497; 0.101013; 0.044189
0.011519; 0.084595; 0.031799
0.011542; 0.069092; 0.019531
0.011565; 0.052673; 0.006653
0.011587; 0.036865; -0.005432
0.011610; 0.019348; -0.018372
0.011633; 0.003357; -0.030151
0.011655; -0.012512; -0.042542
0.011678; -0.029968; -0.055176
0.011701; -0.045959; -0.067932
0.011723; -0.062134; -0.080322
0.011746; -0.078369; -0.092285
0.011769; -0.093811; -0.104919
0.011791; -0.111328; -0.116516
0.011814; -0.128235; -0.129028
0.011837; -0.142334; -0.140503
0.011859; -0.159912; -0.152222
0.011882; -0.174866; -0.163940
0.011905; -0.188660; -0.174438
0.011927; -0.204956; -0.186096
0.011950; -0.219360; -0.196411
0.011973; -0.233826; -0.206787
0.011995; -0.247620; -0.216919
0.012018; -0.261719; -0.226196
0.012041; -0.274353; -0.235291
0.012063; -0.286499; -0.243713
0.012086; -0.296875; -0.252075
0.012109; -0.306885; -0.259888
0.012132; -0.318115; -0.268250
0.012154; -0.326233; -0.274231
0.012177; -0.336487; -0.281128
0.012200; -0.343933; -0.287354
0.012222; -0.351562; -0.292542
0.012245; -0.359619; -0.297668
0.012268; -0.365601; -0.301941
0.012290; -0.373230; -0.306091
0.012313; -0.378174; -0.309265
0.012336; -0.382141; -0.311462
0.012358; -0.386230; -0.313171
0.012381; -0.390808; -0.314270
0.012404; -0.394775; -0.314941
0.012426; -0.396301; -0.314392
0.012449; -0.395813; -0.313232
0.012472; -0.396851; -0.312134
0.012494; -0.397156; -0.309570
0.012517; -0.395081; -0.306580
0.012540; -0.392578; -0.303345
0.012562; -0.389221; -0.298767
0.012585; -0.386780; -0.293945
0.012608; -0.384644; -0.289490
0.012630; -0.378906; -0.283325
0.012653; -0.376099; -0.277405
0.012676; -0.368774; -0.270508
0.012698; -0.361145; -0.263306
0.012721; -0.355225; -0.255737
0.012744; -0.345764; -0.247803
0.012766; -0.336975; -0.239197
0.012789; -0.325195; -0.229980
0.012812; -0.314758; -0.221191
0.012834; -0.302612; -0.211487
0.012857; -0.291382; -0.202087
0.012880; -0.279297; -0.191833
0.012902; -0.265259; -0.182007
0.012925; -0.251404; -0.171143
0.012948; -0.238647; -0.160645
0.012971; -0.223999; -0.149475
0.012993; -0.209473; -0.138000
0.013016; -0.197388; -0.127136
0.013039; -0.181091; -0.114868
0.013061; -0.167969; -0.103149
0.013084; -0.151855; -0.090027
0.013107; -0.136475; -0.077209
0.013129; -0.123352; -0.064697
0.013152; -0.103760; -0.050415
0.013175; -0.088806; -0.037354
0.013197; -0.072266; -0.023437
0.013220; -0.055664; -0.010376
0.013243; -0.038330; 0.003784
0.013265; -0.022217; 0.018188
0.013288; -0.005127; 0.032104
0.013311; 0.012268; 0.046021
0.013333; 0.028381; 0.059753
0.013356; 0.044678; 0.073364
0.013379; 0.060059; 0.087158
0.013401; 0.079407; 0.100891
0.013424; 0.093079; 0.113770
0.013447; 0.108521; 0.126343
0.013469; 0.124573; 0.139038
0.013492; 0.141418; 0.152039
0.013515; 0.156616; 0.164062
0.013537; 0.171265; 0.175659
0.013560; 0.185608; 0.187378
0.013583; 0.200500; 0.198669
0.013605; 0.214417; 0.208435
0.013628; 0.228455; 0.218872
0.013651; 0.243408; 0.228638
0.013673; 0.255798; 0.237732
0.013696; 0.269653; 0.246704
0.013719; 0.281860; 0.255554
0.013741; 0.295471; 0.263245
0.013764; 0.304016; 0.270630
0.013787; 0.314880; 0.277100
0.013810; 0.323975; 0.284058
0.013832; 0.332153; 0.289307
0.013855; 0.341248; 0.294678
0.013878; 0.349365; 0.299561
0.013900; 0.355652; 0.302551
0.013923; 0.362732; 0.306702
0.013946; 0.371765; 0.309143
0.013968; 0.374756; 0.310669
0.013991; 0.380615; 0.311707
0.014014; 0.385986; 0.312805
0.014036; 0.390442; 0.312988
0.014059; 0.394531; 0.312256
0.014082; 0.395691; 0.310913
0.014104; 0.396851; 0.308777
0.014127; 0.397583; 0.306091
0.014150; 0.398254; 0.302429
0.014172; 0.397339; 0.299255
0.014195; 0.396667; 0.295166
0.014218; 0.396484; 0.290833
0.014240; 0.392700; 0.285522
0.014263; 0.390137; 0.280029
0.014286; 0.385803; 0.274109
0.014308; 0.381104; 0.267334
0.014331; 0.376709; 0.261047
0.014354; 0.370300; 0.253540
0.014376; 0.365234; 0.245850
0.014399; 0.357361; 0.237976
0.014422; 0.349243; 0.229553
0.014444; 0.340759; 0.221008
0.014467; 0.332703; 0.212524
0.014490; 0.320007; 0.203003
0.014512; 0.309143; 0.193665
0.014535; 0.297729; 0.184509
0.014558; 0.286621; 0.175415
0.014580; 0.273315; 0.165405
0.014603; 0.258362; 0.155334
0.014626; 0.246704; 0.145386
