Time [s];Amplitude;Amplitude;
0.000000; 0.022095; 0.234131
0.000023; 0.031738; 0.226318
0.000045; 0.044312; 0.218445
0.000068; 0.052490; 0.209412
0.000091; 0.065674; 0.201355
0.000113; 0.075317; 0.192566
0.000136; 0.087097; 0.183960
0.000159; 0.097717; 0.174866
0.000181; 0.107605; 0.165588
0.000204; 0.118042; 0.156250
0.000227; 0.126404; 0.146606
0.000249; 0.137634; 0.137146
0.000272; 0.148437; 0.126831
0.000295; 0.156372; 0.116455
0.000317; 0.165100; 0.105347
0.000340; 0.172180; 0.094849
0.000363; 0.178467; 0.083557
0.000385; 0.188477; 0.072693
0.000408; 0.197083; 0.061584
0.000431; 0.203796; 0.049683
0.000454; 0.211304; 0.038147
0.000476; 0.216309; 0.026123
0.000499; 0.223511; 0.014404
0.000522; 0.229736; 0.002625
0.000544; 0.234680; -0.009705
0.000567; 0.239929; -0.021423
0.000590; 0.244385; -0.032898
0.000612; 0.248840; -0.044983
0.000635; 0.251343; -0.057190
0.000658; 0.252441; -0.069458
0.000680; 0.256165; -0.080200
0.000703; 0.259521; -0.092224
0.000726; 0.259583; -0.104065
0.000748; 0.262451; -0.114746
0.000771; 0.261902; -0.126404
0.000794; 0.260925; -0.137817
0.000816; 0.263000; -0.148254
0.000839; 0.261841; -0.159485
0.000862; 0.259827; -0.170288
0.000884; 0.257263; -0.180847
0.000907; 0.255310; -0.190674
0.000930; 0.252747; -0.200623
0.000952; 0.248230; -0.210266
0.000975; 0.245300; -0.219116
0.000998; 0.240906; -0.228210
0.001020; 0.236511; -0.236511
0.001043; 0.231445; -0.244446
0.001066; 0.225586; -0.251892
0.001088; 0.220337; -0.258789
0.001111; 0.213623; -0.265686
0.001134; 0.206787; -0.272156
0.001156; 0.200623; -0.277771
0.001179; 0.192139; -0.282593
0.001202; 0.186951; -0.286621
0.001224; 0.178467; -0.290710
0.001247; 0.169861; -0.294128
0.001270; 0.160706; -0.297485
0.001293; 0.151917; -0.299561
0.001315; 0.143188; -0.301208
0.001338; 0.135254; -0.301697
0.001361; 0.126282; -0.302307
0.001383; 0.115479; -0.302063
0.001406; 0.103943; -0.301514
0.001429; 0.094727; -0.299072
0.001451; 0.086975; -0.296143
0.001474; 0.074951; -0.293762
0.001497; 0.064819; -0.289551
0.001519; 0.053162; -0.286499
0.001542; 0.041809; -0.282288
0.001565; 0.033081; -0.277039
0.001587; 0.021423; -0.271606
0.001610; 0.009521; -0.265869
0.001633; -0.000610; -0.259583
0.001655; -0.011719; -0.252441
0.001678; -0.023010; -0.245483
0.001701; -0.034790; -0.237854
0.001723; -0.044312; -0.229004
0.001746; -0.055786; -0.221252
0.001769; -0.067993; -0.212830
0.001791; -0.078735; -0.203369
0.001814; -0.088257; -0.194458
0.001837; -0.098267; -0.184875
0.001859; -0.110291; -0.174866
0.001882; -0.119507; -0.164856
0.001905; -0.130005; -0.154358
0.001927; -0.138489; -0.143921
0.001950; -0.147461; -0.132874
0.001973; -0.156799; -0.121033
0.001995; -0.165100; -0.109436
0.002018; -0.173584; -0.097351
0.002041; -0.180847; -0.085266
0.002063; -0.190552; -0.073059
0.002086; -0.197998; -0.060608
0.002109; -0.202942; -0.047241
0.002132; -0.210144; -0.034180
0.002154; -0.216248; -0.021301
0.002177; -0.223267; -0.007629
0.002200; -0.228882; 0.005859
0.002222; -0.233337; 0.019897
0.002245; -0.239441; 0.033020
0.002268; -0.242981; 0.046509
0.002290; -0.247009; 0.059570
0.002313; -0.249817; 0.073120
0.002336; -0.252136; 0.086121
0.002358; -0.252930; 0.099304
0.002381; -0.256348; 0.111511
0.002404; -0.257568; 0.124573
0.002426; -0.257507; 0.136108
0.002449; -0.256531; 0.148376
0.002472; -0.256042; 0.160217
0.002494; -0.257507; 0.171021
0.002517; -0.255615; 0.182556
0.002540; -0.254089; 0.192749
0.002562; -0.250549; 0.203064
0.002585; -0.248962; 0.212891
0.002608; -0.244995; 0.222229
0.002630; -0.242371; 0.230530
0.002653; -0.239258; 0.238586
0.002676; -0.231812; 0.247375
0.002698; -0.228455; 0.254395
0.002721; -0.223511; 0.261108
0.002744; -0.216980; 0.267883
0.002766; -0.211060; 0.273132
0.002789; -0.204773; 0.278503
0.002812; -0.196960; 0.283325
0.002834; -0.190186; 0.287659
0.002857; -0.183228; 0.291138
0.002880; -0.175232; 0.293762
0.002902; -0.167236; 0.295715
0.002925; -0.158813; 0.297729
0.002948; -0.149780; 0.298340
0.002971; -0.139709; 0.299194
0.002993; -0.131653; 0.298706
0.003016; -0.123047; 0.297852
0.003039; -0.113708; 0.295959
0.003061; -0.104004; 0.294006
0.003084; -0.093750; 0.291199
0.003107; -0.084351; 0.287292
0.003129; -0.072876; 0.284180
0.003152; -0.063232; 0.279968
0.003175; -0.052795; 0.275085
0.003197; -0.041504; 0.270142
0.003220; -0.029602; 0.264465
0.003243; -0.018982; 0.258545
0.003265; -0.007751; 0.252502
0.003288; 0.002991; 0.245850
0.003311; 0.013000; 0.238098
0.003333; 0.024597; 0.230530
0.003356; 0.034424; 0.223328
0.003379; 0.046936; 0.215820
0.003401; 0.058105; 0.207642
0.003424; 0.067749; 0.198608
0.003447; 0.078918; 0.190125
0.003469; 0.089478; 0.180908
0.003492; 0.101379; 0.172119
0.003515; 0.109924; 0.162659
0.003537; 0.121582; 0.153992
0.003560; 0.131531; 0.144165
0.003583; 0.140259; 0.133911
0.003605; 0.150208; 0.124023
0.003628; 0.157715; 0.113525
0.003651; 0.167603; 0.103210
0.003673; 0.176086; 0.092468
0.003696; 0.183777; 0.081604
0.003719; 0.191650; 0.070862
0.003741; 0.199463; 0.059265
0.003764; 0.205261; 0.047119
0.003787; 0.214172; 0.036194
0.003810; 0.219604; 0.024170
0.003832; 0.226074; 0.012207
0.003855; 0.232056; 0.000793
0.003878; 0.238708; -0.011169
0.003900; 0.242981; -0.023071
0.003923; 0.245605; -0.035339
0.003946; 0.251282; -0.046875
0.003968; 0.254822; -0.058838
0.003991; 0.257202; -0.070801
0.004014; 0.259827; -0.082214
0.004036; 0.261597; -0.094299
0.004059; 0.262268; -0.105469
0.004082; 0.263062; -0.116760
0.004104; 0.264221; -0.128357
0.004127; 0.265259; -0.138977
0.004150; 0.264282; -0.149902
0.004172; 0.262634; -0.161133
0.004195; 0.261414; -0.171631
0.004218; 0.259888; -0.181824
0.004240; 0.257202; -0.192200
0.004263; 0.254272; -0.201904
0.004286; 0.251892; -0.211304
0.004308; 0.247864; -0.220154
0.004331; 0.241943; -0.229858
0.004354; 0.238708; -0.237976
0.004376; 0.233765; -0.245056
0.004399; 0.227417; -0.252930
0.004422; 0.221558; -0.260132
0.004444; 0.216675; -0.266174
0.004467; 0.210510; -0.272522
0.004490; 0.202026; -0.278381
0.004512; 0.197083; -0.283081
0.004535; 0.188049; -0.287903
0.004558; 0.179993; -0.292053
0.004580; 0.171570; -0.295349
0.004603; 0.164124; -0.297668
0.004626; 0.155151; -0.300659
0.004649; 0.145081; -0.302490
0.004671; 0.136902; -0.302734
0.004694; 0.127197; -0.303040
0.004717; 0.117676; -0.302368
0.004739; 0.107056; -0.301697
0.004762; 0.097839; -0.299805
0.004785; 0.086182; -0.297424
0.004807; 0.075073; -0.294250
0.004830; 0.067017; -0.290344
0.004853; 0.056335; -0.286560
0.004875; 0.043701; -0.282593
0.004898; 0.032593; -0.277405
0.004921; 0.023132; -0.271484
0.004943; 0.013916; -0.265198
0.004966; -0.001465; -0.259094
0.004989; -0.010986; -0.251953
0.005011; -0.021423; -0.244812
0.005034; -0.032349; -0.236816
0.005057; -0.043335; -0.228455
0.005079; -0.054382; -0.220276
0.005102; -0.066711; -0.211975
0.005125; -0.076233; -0.202393
0.005147; -0.087463; -0.192932
0.005170; -0.098999; -0.183960
0.005193; -0.107056; -0.174377
0.005215; -0.119385; -0.164490
0.005238; -0.126831; -0.153992
0.005261; -0.136169; -0.142883
0.005283; -0.147766; -0.132263
0.005306; -0.155823; -0.121338
0.005329; -0.162354; -0.108826
0.005351; -0.172791; -0.097229
0.005374; -0.179077; -0.084900
0.005397; -0.188171; -0.072327
0.005420; -0.196289; -0.059814
0.005442; -0.202637; -0.046875
0.005465; -0.210999; -0.033691
0.005488; -0.215881; -0.020264
0.005510; -0.221802; -0.006714
0.005533; -0.227356; 0.006348
0.005556; -0.233215; 0.019897
0.005578; -0.236633; 0.033630
0.005601; -0.239807; 0.046814
0.005624; -0.245422; 0.059937
0.005646; -0.249451; 0.073120
0.005669; -0.250916; 0.086670
0.005692; -0.253784; 0.099854
0.005714; -0.256348; 0.112366
0.005737; -0.256470; 0.125000
0.005760; -0.257812; 0.137024
0.005782; -0.258484; 0.148743
0.005805; -0.258118; 0.161011
0.005828; -0.258728; 0.172058
0.005850; -0.256958; 0.183228
0.005873; -0.256104; 0.193909
0.005896; -0.252747; 0.204285
0.005918; -0.251282; 0.214172
0.005941; -0.248230; 0.223267
0.005964; -0.243713; 0.231934
0.005986; -0.239380; 0.240784
0.006009; -0.236145; 0.248474
0.006032; -0.230774; 0.256104
0.006054; -0.226868; 0.262634
0.006077; -0.219910; 0.269043
0.006100; -0.213928; 0.275024
0.006122; -0.207764; 0.280579
0.006145; -0.200134; 0.285217
0.006168; -0.193237; 0.288757
0.006190; -0.186157; 0.292114
0.006213; -0.179871; 0.295471
0.006236; -0.170227; 0.298401
0.006259; -0.161011; 0.299622
0.006281; -0.152100; 0.300720
0.006304; -0.144409; 0.300964
0.006327; -0.135132; 0.300049
0.006349; -0.126038; 0.299438
0.006372; -0.117126; 0.297852
0.006395; -0.106689; 0.295776
0.006417; -0.097656; 0.293152
0.006440; -0.085693; 0.289734
0.006463; -0.075989; 0.286560
0.006485; -0.065918; 0.281799
0.006508; -0.055420; 0.276917
0.006531; -0.044800; 0.272583
0.006553; -0.033508; 0.267273
0.006576; -0.021484; 0.260803
0.006599; -0.010010; 0.254883
0.006621; -0.001648; 0.247375
0.006644; 0.009155; 0.240417
0.006667; 0.021606; 0.233154
0.006689; 0.032898; 0.225220
0.006712; 0.041077; 0.217041
0.006735; 0.052979; 0.209229
0.006757; 0.064514; 0.201294
0.006780; 0.075500; 0.191772
0.006803; 0.085754; 0.182922
0.006825; 0.096436; 0.174072
0.006848; 0.106812; 0.165222
0.006871; 0.117554; 0.155884
0.006893; 0.127075; 0.145874
0.006916; 0.133911; 0.135986
0.006939; 0.145935; 0.126160
0.006961; 0.154846; 0.115906
0.006984; 0.164429; 0.105591
0.007007; 0.173035; 0.095154
0.007029; 0.180420; 0.083801
0.007052; 0.187866; 0.072693
0.007075; 0.195496; 0.061340
0.007098; 0.201599; 0.049500
0.007120; 0.207397; 0.037598
0.007143; 0.216736; 0.026550
0.007166; 0.220947; 0.014771
0.007188; 0.226562; 0.001953
0.007211; 0.231567; -0.010071
0.007234; 0.236450; -0.021912
0.007256; 0.242126; -0.033447
0.007279; 0.246887; -0.044800
0.007302; 0.248657; -0.057007
0.007324; 0.251892; -0.069519
0.007347; 0.252441; -0.081116
0.007370; 0.254089; -0.093201
0.007392; 0.257874; -0.103943
0.007415; 0.257751; -0.115906
0.007438; 0.259277; -0.127014
0.007460; 0.258850; -0.137817
0.007483; 0.259216; -0.149170
0.007506; 0.257751; -0.159546
0.007528; 0.256042; -0.170471
0.007551; 0.255005; -0.180786
0.007574; 0.251892; -0.190918
0.007596; 0.250000; -0.200073
0.007619; 0.247253; -0.209778
0.007642; 0.241882; -0.219421
0.007664; 0.238647; -0.228455
0.007687; 0.233582; -0.236938
0.007710; 0.228699; -0.244568
0.007732; 0.222900; -0.252197
0.007755; 0.216980; -0.259033
0.007778; 0.210083; -0.265625
0.007800; 0.203918; -0.272339
0.007823; 0.196777; -0.277588
0.007846; 0.190002; -0.283020
0.007868; 0.184021; -0.287354
0.007891; 0.174744; -0.291443
0.007914; 0.167847; -0.294373
0.007937; 0.159180; -0.297424
0.007959; 0.149658; -0.299927
0.007982; 0.140015; -0.301514
0.008005; 0.132446; -0.302124
0.008027; 0.122681; -0.301697
0.008050; 0.111267; -0.302307
0.008073; 0.102417; -0.301147
0.008095; 0.092773; -0.299072
0.008118; 0.081604; -0.296936
0.008141; 0.071167; -0.294006
0.008163; 0.059937; -0.290344
0.008186; 0.049988; -0.287170
0.008209; 0.037964; -0.282776
0.008231; 0.029724; -0.277832
0.008254; 0.020081; -0.271729
0.008277; 0.008911; -0.265564
0.008299; -0.002747; -0.259521
0.008322; -0.015076; -0.252502
0.008345; -0.025208; -0.245239
0.008367; -0.037598; -0.237793
0.008390; -0.046814; -0.229736
0.008413; -0.057678; -0.221375
0.008435; -0.068909; -0.212585
0.008458; -0.079651; -0.203430
0.008481; -0.089172; -0.194031
0.008503; -0.101196; -0.184937
0.008526; -0.109314; -0.174744
0.008549; -0.120605; -0.164917
0.008571; -0.131287; -0.154724
0.008594; -0.139648; -0.143677
0.008617; -0.149414; -0.132751
0.008639; -0.159546; -0.121765
0.008662; -0.167358; -0.109497
0.008685; -0.175903; -0.097961
0.008707; -0.183777; -0.085876
0.008730; -0.192261; -0.073242
0.008753; -0.199829; -0.060425
0.008776; -0.206116; -0.047302
0.008798; -0.213318; -0.034119
0.008821; -0.219666; -0.020325
0.008844; -0.226562; -0.007202
0.008866; -0.233643; 0.005493
0.008889; -0.238159; 0.019348
0.008912; -0.241882; 0.032898
0.008934; -0.246704; 0.046448
0.008957; -0.250793; 0.059143
0.008980; -0.253845; 0.072815
0.009002; -0.256409; 0.086243
0.009025; -0.258728; 0.099121
0.009048; -0.258972; 0.112305
0.009070; -0.261902; 0.124390
0.009093; -0.262817; 0.137146
0.009116; -0.262756; 0.148926
0.009138; -0.262817; 0.160706
0.009161; -0.262512; 0.172058
0.009184; -0.260437; 0.183411
0.009206; -0.258667; 0.193970
0.009229; -0.257996; 0.203674
0.009252; -0.255310; 0.213562
0.009274; -0.253235; 0.223145
0.009297; -0.247925; 0.232300
0.009320; -0.243591; 0.241028
0.009342; -0.240601; 0.248718
0.009365; -0.234070; 0.255920
0.009388; -0.229370; 0.262695
0.009410; -0.224548; 0.269104
0.009433; -0.217285; 0.274841
0.009456; -0.211670; 0.280029
0.009478; -0.205322; 0.285034
0.009501; -0.196960; 0.289429
0.009524; -0.189941; 0.292603
0.009546; -0.181458; 0.295532
0.009569; -0.174194; 0.298096
0.009592; -0.166687; 0.299438
0.009615; -0.157898; 0.300720
0.009637; -0.148560; 0.301025
0.009660; -0.138977; 0.300415
0.009683; -0.129944; 0.299561
0.009705; -0.120239; 0.298035
0.009728; -0.109985; 0.295654
0.009751; -0.100342; 0.293701
0.009773; -0.090393; 0.290161
0.009796; -0.078735; 0.286255
0.009819; -0.068848; 0.281921
0.009841; -0.058533; 0.277039
0.009864; -0.047302; 0.272461
0.009887; -0.035828; 0.266602
0.009909; -0.027344; 0.260803
0.009932; -0.014893; 0.254395
0.009955; -0.004395; 0.247803
0.009977; 0.006653; 0.240479
0.010000; 0.018372; 0.232910
0.010023; 0.027527; 0.225586
0.010045; 0.039978; 0.217346
0.010068; 0.050476; 0.209106
0.010091; 0.061340; 0.200867
0.010113; 0.071533; 0.191650
0.010136; 0.080322; 0.182800
0.010159; 0.093140; 0.173828
0.010181; 0.102661; 0.164917
0.010204; 0.111450; 0.155396
0.010227; 0.122925; 0.145264
0.010249; 0.131897; 0.135681
0.010272; 0.142212; 0.125977
0.010295; 0.148560; 0.114685
0.010317; 0.160095; 0.104858
0.010340; 0.168640; 0.094727
0.010363; 0.175232; 0.083191
0.010385; 0.183777; 0.071716
0.010408; 0.189575; 0.060242
0.010431; 0.197815; 0.048950
0.010454; 0.203796; 0.037537
0.010476; 0.210022; 0.025940
0.010499; 0.217468; 0.014221
0.010522; 0.223389; 0.002075
0.010544; 0.228943; -0.010010
0.010567; 0.234009; -0.021851
0.010590; 0.238098; -0.033752
0.010612; 0.242981; -0.045593
0.010635; 0.246216; -0.057495
0.010658; 0.248840; -0.069275
0.010680; 0.251099; -0.080627
0.010703; 0.252930; -0.092590
0.010726; 0.254639; -0.104431
0.010748; 0.254456; -0.116150
0.010771; 0.254883; -0.127502
0.010794; 0.255676; -0.138611
0.010816; 0.255127; -0.149658
0.010839; 0.255798; -0.160278
0.010862; 0.253784; -0.171326
0.010884; 0.250916; -0.181763
0.010907; 0.248291; -0.191956
0.010930; 0.244629; -0.201843
0.010952; 0.243958; -0.210876
0.010975; 0.238831; -0.220703
0.010998; 0.234314; -0.229553
0.011020; 0.230164; -0.237915
0.011043; 0.224976; -0.246033
0.011066; 0.220581; -0.253601
0.011088; 0.214417; -0.260254
0.011111; 0.208069; -0.266846
0.011134; 0.202148; -0.273682
0.011156; 0.195984; -0.278687
0.011179; 0.187622; -0.284241
0.011202; 0.180176; -0.288757
0.011224; 0.172363; -0.293213
0.011247; 0.164856; -0.296021
0.011270; 0.155212; -0.299316
0.011293; 0.148010; -0.301270
0.011315; 0.140015; -0.302734
0.011338; 0.129517; -0.303894
0.011361; 0.119934; -0.304016
0.011383; 0.111572; -0.303467
0.011406; 0.100891; -0.302734
0.011429; 0.090942; -0.301086
0.011451; 0.080505; -0.298828
0.011474; 0.070374; -0.295898
0.011497; 0.059753; -0.292603
0.011519; 0.048401; -0.289001
0.011542; 0.037781; -0.284790
0.011565; 0.029663; -0.279236
0.011587; 0.017395; -0.273926
0.011610; 0.005798; -0.268372
0.011633; -0.003723; -0.261292
0.011655; -0.016357; -0.255005
0.011678; -0.026550; -0.247375
0.011701; -0.037476; -0.239807
0.011723; -0.048828; -0.232239
0.011746; -0.059204; -0.223206
0.011769; -0.069031; -0.214600
0.011791; -0.079773; -0.205566
0.011814; -0.090515; -0.196106
0.011837; -0.101990; -0.186768
0.011859; -0.112793; -0.177368
0.011882; -0.121643; -0.166870
0.011905; -0.131042; -0.156250
0.011927; -0.140503; -0.145569
0.011950; -0.149902; -0.134399
0.011973; -0.160522; -0.123901
0.011995; -0.168762; -0.111816
0.012018; -0.177002; -0.099426
0.012041; -0.184814; -0.087585
0.012063; -0.193481; -0.074707
0.012086; -0.200562; -0.062256
0.012109; -0.206848; -0.049316
0.012132; -0.214294; -0.036133
0.012154; -0.218628; -0.022583
0.012177; -0.225769; -0.009033
0.012200; -0.232300; 0.003845
0.012222; -0.237183; 0.017944
0.012245; -0.242004; 0.031067
0.012268; -0.246460; 0.044434
0.012290; -0.250061; 0.057739
0.012313; -0.253540; 0.071533
0.012336; -0.257080; 0.084167
0.012358; -0.258667; 0.097534
0.012381; -0.259338; 0.110779
0.012404; -0.260559; 0.122803
0.012426; -0.261292; 0.135559
0.012449; -0.261230; 0.147461
0.012472; -0.261536; 0.158936
0.012494; -0.260254; 0.171265
0.012517; -0.260376; 0.181580
0.012540; -0.258118; 0.192688
0.012562; -0.256470; 0.202698
0.012585; -0.253906; 0.212341
0.012608; -0.250366; 0.222229
0.012630; -0.248047; 0.230469
0.012653; -0.242981; 0.239441
0.012676; -0.239502; 0.246887
0.012698; -0.235046; 0.254578
0.012721; -0.228760; 0.261780
0.012744; -0.221802; 0.268799
0.012766; -0.218445; 0.273499
0.012789; -0.210754; 0.279114
0.012812; -0.203125; 0.284119
0.012834; -0.197510; 0.287598
0.012857; -0.189453; 0.291626
0.012880; -0.183289; 0.293884
0.012902; -0.174438; 0.297119
0.012925; -0.166199; 0.298645
0.012948; -0.157104; 0.300049
0.012971; -0.146362; 0.300598
0.012993; -0.138733; 0.299744
0.013016; -0.129517; 0.299133
0.013039; -0.118286; 0.298157
0.013061; -0.110474; 0.295471
0.013084; -0.099976; 0.293091
0.013107; -0.089478; 0.290161
0.013129; -0.079773; 0.286255
0.013152; -0.070129; 0.281799
0.013175; -0.058716; 0.277649
0.013197; -0.047729; 0.272644
0.013220; -0.038635; 0.267090
0.013243; -0.025208; 0.261902
0.013265; -0.015198; 0.255371
0.013288; -0.004211; 0.248657
0.013311; 0.005554; 0.241638
0.013333; 0.016846; 0.234253
0.013356; 0.029297; 0.226868
0.013379; 0.039124; 0.219116
0.013401; 0.050049; 0.210449
0.013424; 0.059937; 0.202209
0.013447; 0.070740; 0.193848
0.013469; 0.081360; 0.184509
0.013492; 0.092163; 0.175842
0.013515; 0.102661; 0.166565
0.013537; 0.112183; 0.156189
0.013560; 0.125549; 0.147583
0.013583; 0.132263; 0.137390
0.013605; 0.141113; 0.127258
0.013628; 0.151794; 0.116455
0.013651; 0.158508; 0.105896
0.013673; 0.168213; 0.095398
0.013696; 0.175476; 0.084106
0.013719; 0.184998; 0.073242
0.013741; 0.192322; 0.061890
0.013764; 0.197998; 0.050537
0.013787; 0.203735; 0.038269
0.013810; 0.212708; 0.026978
0.013832; 0.217224; 0.015137
0.013855; 0.224304; 0.003113
0.013878; 0.229614; -0.008789
0.013900; 0.232666; -0.021057
0.013923; 0.236572; -0.033875
0.013946; 0.240784; -0.045288
0.013968; 0.243713; -0.057068
0.013991; 0.247070; -0.068848
0.014014; 0.250183; -0.079895
0.014036; 0.252625; -0.091614
0.014059; 0.255615; -0.103516
0.014082; 0.255676; -0.114868
0.014104; 0.255432; -0.125977
0.014127; 0.255859; -0.137085
0.014150; 0.254333; -0.148560
0.014172; 0.255066; -0.159058
0.014195; 0.255310; -0.169434
0.014218; 0.251648; -0.180115
0.014240; 0.248596; -0.190186
0.014263; 0.246521; -0.200439
0.014286; 0.243591; -0.209778
0.014308; 0.239990; -0.218872
0.014331; 0.235779; -0.227966
0.014354; 0.230835; -0.236694
0.014376; 0.227112; -0.243469
0.014399; 0.221069; -0.251526
0.014422; 0.213501; -0.259460
0.014444; 0.209167; -0.265198
0.014467; 0.203918; -0.271301
0.014490; 0.196045; -0.277344
0.014512; 0.188599; -0.282654
0.014535; 0.182373; -0.286499
0.014558; 0.172302; -0.291138
0.014580; 0.164856; -0.294312
