Time [s];Amplitude;Amplitude;
0.000000; 0.009521; 0.297546
0.000023; 0.020630; 0.294739
0.000045; 0.031067; 0.291748
0.000068; 0.041077; 0.286926
0.000091; 0.049683; 0.282471
0.000113; 0.061279; 0.278503
0.000136; 0.071594; 0.273071
0.000159; 0.079102; 0.267273
0.000181; 0.089966; 0.261841
0.000204; 0.098633; 0.255554
0.000227; 0.109558; 0.248840
0.000249; 0.117920; 0.241882
0.000272; 0.125000; 0.233826
0.000295; 0.135864; 0.226807
0.000317; 0.142944; 0.218750
0.000340; 0.152222; 0.209839
0.000363; 0.160645; 0.201660
0.000385; 0.168640; 0.192993
0.000408; 0.175537; 0.184326
0.000431; 0.181458; 0.174805
0.000454; 0.189209; 0.165894
0.000476; 0.195435; 0.156494
0.000499; 0.200867; 0.146790
0.000522; 0.207031; 0.137390
0.000544; 0.212585; 0.127075
0.000567; 0.215271; 0.116272
0.000590; 0.221863; 0.105957
0.000612; 0.225159; 0.094849
0.000635; 0.229309; 0.084106
0.000658; 0.233337; 0.073242
0.000680; 0.235840; 0.061340
0.000703; 0.238892; 0.049927
0.000726; 0.240173; 0.038025
0.000748; 0.242981; 0.026611
0.000771; 0.243103; 0.014404
0.000794; 0.243164; 0.002502
0.000816; 0.242249; -0.009399
0.000839; 0.243591; -0.020996
0.000862; 0.242859; -0.033508
0.000884; 0.239258; -0.045837
0.000907; 0.238342; -0.057678
0.000930; 0.236572; -0.069214
0.000952; 0.234985; -0.080444
0.000975; 0.230591; -0.092163
0.000998; 0.228088; -0.103271
0.001020; 0.224243; -0.115417
0.001043; 0.218994; -0.126526
0.001066; 0.214783; -0.138184
0.001088; 0.209290; -0.148560
0.001111; 0.205322; -0.158936
0.001134; 0.197693; -0.170410
0.001156; 0.191528; -0.180603
0.001179; 0.186523; -0.190430
0.001202; 0.176270; -0.200745
0.001224; 0.169678; -0.210205
0.001247; 0.163452; -0.219055
0.001270; 0.155273; -0.228149
0.001293; 0.148071; -0.236328
0.001315; 0.137207; -0.244385
0.001338; 0.127869; -0.252625
0.001361; 0.119629; -0.259521
0.001383; 0.111450; -0.265686
0.001406; 0.103271; -0.272095
0.001429; 0.092285; -0.277893
0.001451; 0.083923; -0.282593
0.001474; 0.074158; -0.286987
0.001497; 0.063721; -0.291443
0.001519; 0.054810; -0.294617
0.001542; 0.043762; -0.297424
0.001565; 0.035828; -0.299500
0.001587; 0.025818; -0.300903
0.001610; 0.014954; -0.301941
0.001633; 0.004333; -0.302368
0.001655; -0.003906; -0.301331
0.001678; -0.015198; -0.300842
0.001701; -0.024902; -0.298828
0.001723; -0.035278; -0.296448
0.001746; -0.047180; -0.294128
0.001769; -0.056580; -0.290466
0.001791; -0.067444; -0.286926
0.001814; -0.075867; -0.282043
0.001837; -0.085754; -0.277161
0.001859; -0.095093; -0.271545
0.001882; -0.104065; -0.265625
0.001905; -0.114685; -0.259155
0.001927; -0.123901; -0.252380
0.001950; -0.132507; -0.245483
0.001973; -0.141846; -0.237549
0.001995; -0.149109; -0.229797
0.002018; -0.158447; -0.221130
0.002041; -0.164307; -0.212524
0.002063; -0.173096; -0.203430
0.002086; -0.181091; -0.194458
0.002109; -0.187073; -0.184753
0.002132; -0.194275; -0.175171
0.002154; -0.200806; -0.165283
0.002177; -0.204773; -0.154358
0.002200; -0.210266; -0.143616
0.002222; -0.215698; -0.132629
0.002245; -0.221741; -0.121399
0.002268; -0.225586; -0.109680
0.002290; -0.228699; -0.097473
0.002313; -0.232056; -0.084961
0.002336; -0.235901; -0.072876
0.002358; -0.238342; -0.060059
0.002381; -0.239990; -0.047119
0.002404; -0.242676; -0.034119
0.002426; -0.242676; -0.020630
0.002449; -0.244080; -0.007263
0.002472; -0.243042; 0.005920
0.002494; -0.242615; 0.019714
0.002517; -0.241882; 0.033325
0.002540; -0.241028; 0.046814
0.002562; -0.240112; 0.059998
0.002585; -0.237732; 0.073181
0.002608; -0.235352; 0.085937
0.002630; -0.231628; 0.099792
0.002653; -0.229492; 0.112366
0.002676; -0.224976; 0.124451
0.002698; -0.221008; 0.136780
0.002721; -0.217529; 0.148987
0.002744; -0.211548; 0.160828
0.002766; -0.205139; 0.172241
0.002789; -0.199158; 0.183533
0.002812; -0.193176; 0.194092
0.002834; -0.184937; 0.204712
0.002857; -0.176575; 0.214600
0.002880; -0.170715; 0.223877
0.002902; -0.163391; 0.232483
0.002925; -0.155762; 0.240967
0.002948; -0.148499; 0.248840
0.002971; -0.140076; 0.255981
0.002993; -0.134216; 0.262756
0.003016; -0.123840; 0.269409
0.003039; -0.114380; 0.275208
0.003061; -0.104431; 0.280884
0.003084; -0.096985; 0.285217
0.003107; -0.089355; 0.289551
0.003129; -0.078125; 0.292847
0.003152; -0.068726; 0.295654
0.003175; -0.056519; 0.298401
0.003197; -0.049133; 0.299255
0.003220; -0.039368; 0.300415
0.003243; -0.026672; 0.301270
0.003265; -0.017334; 0.300842
0.003288; -0.006714; 0.300232
0.003311; 0.003784; 0.298462
0.003333; 0.013550; 0.296082
0.003356; 0.024292; 0.293945
0.003379; 0.034729; 0.290894
0.003401; 0.043640; 0.286865
0.003424; 0.053711; 0.282288
0.003447; 0.063538; 0.278198
0.003469; 0.075256; 0.272888
0.003492; 0.083679; 0.267212
0.003515; 0.093262; 0.261353
0.003537; 0.103943; 0.255066
0.003560; 0.111938; 0.248230
0.003583; 0.123413; 0.241577
0.003605; 0.129944; 0.233948
0.003628; 0.139648; 0.226074
0.003651; 0.148193; 0.218384
0.003673; 0.156799; 0.209900
0.003696; 0.164124; 0.201233
0.003719; 0.171265; 0.192261
0.003741; 0.179626; 0.183533
0.003764; 0.186523; 0.174500
0.003787; 0.194336; 0.165344
0.003810; 0.200500; 0.156006
0.003832; 0.206116; 0.145935
0.003855; 0.211914; 0.136536
0.003878; 0.217224; 0.126221
0.003900; 0.221436; 0.115601
0.003923; 0.224915; 0.105164
0.003946; 0.230347; 0.094238
0.003968; 0.234924; 0.083984
0.003991; 0.237610; 0.072449
0.004014; 0.240173; 0.060974
0.004036; 0.241211; 0.049561
0.004059; 0.242859; 0.037720
0.004082; 0.244324; 0.025879
0.004104; 0.246582; 0.014709
0.004127; 0.247803; 0.002258
0.004150; 0.247009; -0.009705
0.004172; 0.245300; -0.021606
0.004195; 0.244019; -0.033997
0.004218; 0.244324; -0.045227
0.004240; 0.242126; -0.057373
0.004263; 0.240112; -0.068665
0.004286; 0.238464; -0.080505
0.004308; 0.235107; -0.092346
0.004331; 0.230225; -0.103638
0.004354; 0.226807; -0.115479
0.004376; 0.223572; -0.126282
0.004399; 0.217590; -0.137695
0.004422; 0.213196; -0.148315
0.004444; 0.205505; -0.159973
0.004467; 0.200623; -0.170410
0.004490; 0.194946; -0.179993
0.004512; 0.186401; -0.190796
0.004535; 0.181213; -0.200256
0.004558; 0.173767; -0.209900
0.004580; 0.166077; -0.218994
0.004603; 0.158142; -0.228333
0.004626; 0.149109; -0.236389
0.004649; 0.140503; -0.244263
0.004671; 0.131958; -0.251831
0.004694; 0.123474; -0.259216
0.004717; 0.114014; -0.265564
0.004739; 0.104065; -0.272034
0.004762; 0.095398; -0.277466
0.004785; 0.086121; -0.282776
0.004807; 0.076782; -0.287170
0.004830; 0.067017; -0.291138
0.004853; 0.057556; -0.294739
0.004875; 0.046448; -0.297058
0.004898; 0.036499; -0.299744
0.004921; 0.026428; -0.301331
0.004943; 0.017212; -0.302185
0.004966; 0.008057; -0.302124
0.004989; -0.003357; -0.302002
0.005011; -0.014648; -0.301086
0.005034; -0.024536; -0.299377
0.005057; -0.034302; -0.297241
0.005079; -0.044006; -0.293701
0.005102; -0.053589; -0.290405
0.005125; -0.064026; -0.286804
0.005147; -0.074707; -0.282593
0.005170; -0.083923; -0.277283
0.005193; -0.093262; -0.271729
0.005215; -0.103333; -0.266296
0.005238; -0.112366; -0.259460
0.005261; -0.120544; -0.252075
0.005283; -0.130127; -0.245728
0.005306; -0.138245; -0.237427
0.005329; -0.145935; -0.229126
0.005351; -0.155396; -0.221252
0.005374; -0.162720; -0.212891
0.005397; -0.172302; -0.203796
0.005420; -0.178589; -0.194458
0.005442; -0.185730; -0.185242
0.005465; -0.192139; -0.175171
0.005488; -0.196716; -0.165039
0.005510; -0.204102; -0.154846
0.005533; -0.209473; -0.143921
0.005556; -0.214539; -0.133118
0.005578; -0.218567; -0.122070
0.005601; -0.222290; -0.110291
0.005624; -0.226318; -0.098450
0.005646; -0.229309; -0.085693
0.005669; -0.231506; -0.073853
0.005692; -0.234558; -0.061035
0.005714; -0.236572; -0.047852
0.005737; -0.239014; -0.035461
0.005760; -0.239746; -0.021973
0.005782; -0.239197; -0.008301
0.005805; -0.241211; 0.004883
0.005828; -0.239563; 0.018127
0.005850; -0.238831; 0.031738
0.005873; -0.236511; 0.045349
0.005896; -0.235596; 0.058533
0.005918; -0.233154; 0.071838
0.005941; -0.232300; 0.084412
0.005964; -0.228821; 0.097595
0.005986; -0.225830; 0.110352
0.006009; -0.223206; 0.122803
0.006032; -0.216736; 0.135315
0.006054; -0.213745; 0.147034
0.006077; -0.208374; 0.158691
0.006100; -0.203369; 0.169922
0.006122; -0.197754; 0.181274
0.006145; -0.190918; 0.192200
0.006168; -0.182800; 0.203308
0.006190; -0.177124; 0.212280
0.006213; -0.170044; 0.221436
0.006236; -0.161133; 0.230591
0.006259; -0.154175; 0.239075
0.006281; -0.145081; 0.246765
0.006304; -0.137756; 0.253845
0.006327; -0.127808; 0.261353
0.006349; -0.119812; 0.267334
0.006372; -0.110779; 0.273621
0.006395; -0.102905; 0.278137
0.006417; -0.092590; 0.283264
0.006440; -0.083496; 0.287292
0.006463; -0.074158; 0.291138
0.006485; -0.063599; 0.294006
0.006508; -0.053711; 0.296082
0.006531; -0.043274; 0.297852
0.006553; -0.034607; 0.298645
0.006576; -0.024780; 0.298889
0.006599; -0.013672; 0.298950
0.006621; -0.001587; 0.298340
0.006644; 0.005371; 0.296204
0.006667; 0.016541; 0.294373
0.006689; 0.027039; 0.291504
0.006712; 0.037476; 0.288635
0.006735; 0.047546; 0.284973
0.006757; 0.056641; 0.280884
0.006780; 0.067993; 0.276245
0.006803; 0.077026; 0.271179
0.006825; 0.086914; 0.265381
0.006848; 0.097534; 0.259338
0.006871; 0.105652; 0.253174
0.006893; 0.117004; 0.246643
0.006916; 0.125061; 0.239685
0.006939; 0.133911; 0.232422
0.006961; 0.142151; 0.224365
0.006984; 0.150452; 0.216370
0.007007; 0.159546; 0.208496
0.007029; 0.167297; 0.199829
0.007052; 0.174316; 0.191101
0.007075; 0.181458; 0.182007
0.007098; 0.189026; 0.173279
0.007120; 0.195312; 0.164429
0.007143; 0.203674; 0.155029
0.007166; 0.207336; 0.145020
0.007188; 0.214233; 0.135376
0.007211; 0.217651; 0.124878
0.007234; 0.223267; 0.114685
0.007256; 0.228516; 0.104492
0.007279; 0.231628; 0.093323
0.007302; 0.235352; 0.082275
0.007324; 0.237915; 0.071167
0.007347; 0.242249; 0.060181
0.007370; 0.243408; 0.048218
0.007392; 0.246277; 0.036926
0.007415; 0.247986; 0.025146
0.007438; 0.247437; 0.013000
0.007460; 0.247803; 0.001465
0.007483; 0.246826; -0.010803
0.007506; 0.247986; -0.022400
0.007528; 0.248657; -0.034363
0.007551; 0.246338; -0.045959
0.007574; 0.245422; -0.058105
0.007596; 0.241516; -0.069763
0.007619; 0.237793; -0.081482
0.007642; 0.234619; -0.093262
0.007664; 0.231873; -0.104553
0.007687; 0.229614; -0.116028
0.007710; 0.223938; -0.127502
0.007732; 0.218201; -0.139038
0.007755; 0.214539; -0.149109
0.007778; 0.208923; -0.160400
0.007800; 0.201965; -0.170593
0.007823; 0.194580; -0.181030
0.007846; 0.188293; -0.191345
0.007868; 0.182434; -0.200806
0.007891; 0.173523; -0.210876
0.007914; 0.165283; -0.219421
0.007937; 0.159302; -0.228577
0.007959; 0.149963; -0.236816
0.007982; 0.142822; -0.244324
0.008005; 0.133911; -0.251587
0.008027; 0.124756; -0.258606
0.008050; 0.116089; -0.265198
0.008073; 0.105835; -0.271729
0.008095; 0.097351; -0.277161
0.008118; 0.088318; -0.281921
0.008141; 0.077515; -0.286499
0.008163; 0.069763; -0.290405
0.008186; 0.057739; -0.294067
0.008209; 0.047607; -0.296692
0.008231; 0.038940; -0.298523
0.008254; 0.027344; -0.300354
0.008277; 0.016235; -0.301208
0.008299; 0.007019; -0.300842
0.008322; -0.001587; -0.300476
0.008345; -0.013489; -0.299194
0.008367; -0.023437; -0.298340
0.008390; -0.033386; -0.295715
0.008413; -0.044373; -0.293335
0.008435; -0.052124; -0.289612
0.008458; -0.063721; -0.285889
0.008481; -0.073303; -0.281677
0.008503; -0.083130; -0.276245
0.008526; -0.094788; -0.271362
0.008549; -0.101868; -0.265198
0.008571; -0.112061; -0.258728
0.008594; -0.120972; -0.252258
0.008617; -0.130737; -0.244629
0.008639; -0.139404; -0.237061
0.008662; -0.148437; -0.228821
0.008685; -0.155151; -0.220276
0.008707; -0.162415; -0.211792
0.008730; -0.169312; -0.202332
0.008753; -0.177917; -0.193420
0.008776; -0.183655; -0.183533
0.008798; -0.190735; -0.174377
0.008821; -0.198242; -0.164185
0.008844; -0.202820; -0.153564
0.008866; -0.209167; -0.143311
0.008889; -0.214600; -0.131836
0.008912; -0.218811; -0.120850
0.008934; -0.223877; -0.109253
0.008957; -0.226196; -0.097107
0.008980; -0.230042; -0.084717
0.009002; -0.233154; -0.072021
0.009025; -0.235962; -0.059387
0.009048; -0.239624; -0.046814
0.009070; -0.240234; -0.033508
0.009093; -0.242310; -0.020264
0.009116; -0.242432; -0.006836
0.009138; -0.244995; 0.006165
0.009161; -0.242676; 0.019897
0.009184; -0.241455; 0.033875
0.009206; -0.241333; 0.046997
0.009229; -0.237854; 0.060425
0.009252; -0.237244; 0.073608
0.009274; -0.235657; 0.086609
0.009297; -0.231873; 0.100220
0.009320; -0.228333; 0.112488
0.009342; -0.224915; 0.124695
0.009365; -0.221680; 0.137146
0.009388; -0.217163; 0.149292
0.009410; -0.210571; 0.161255
0.009433; -0.206238; 0.172607
0.009456; -0.200745; 0.183594
0.009478; -0.192505; 0.194519
0.009501; -0.185669; 0.205200
0.009524; -0.180054; 0.214233
0.009546; -0.173523; 0.223938
0.009569; -0.165100; 0.233032
0.009592; -0.156372; 0.241455
0.009615; -0.149109; 0.249451
0.009637; -0.143066; 0.256409
0.009660; -0.131775; 0.263550
0.009683; -0.123413; 0.270081
0.009705; -0.114441; 0.276245
0.009728; -0.106018; 0.281067
0.009751; -0.095642; 0.285767
0.009773; -0.084961; 0.290161
0.009796; -0.076538; 0.293274
0.009819; -0.066406; 0.296509
0.009841; -0.057678; 0.299072
0.009864; -0.048706; 0.300232
0.009887; -0.038696; 0.301392
0.009909; -0.026550; 0.302002
0.009932; -0.017334; 0.301392
0.009955; -0.005310; 0.300842
0.009977; 0.004150; 0.299011
0.010000; 0.013855; 0.296753
0.010023; 0.024170; 0.294128
0.010045; 0.033447; 0.290833
0.010068; 0.043701; 0.287109
0.010091; 0.052979; 0.282898
0.010113; 0.063477; 0.278198
0.010136; 0.073059; 0.273071
0.010159; 0.082336; 0.267517
0.010181; 0.092651; 0.261719
0.010204; 0.101135; 0.255371
0.010227; 0.110535; 0.248413
0.010249; 0.120850; 0.241577
0.010272; 0.128296; 0.234009
0.010295; 0.138733; 0.226257
0.010317; 0.146362; 0.218323
0.010340; 0.154419; 0.209961
0.010363; 0.163025; 0.201843
0.010385; 0.170227; 0.192810
0.010408; 0.177124; 0.183716
0.010431; 0.185242; 0.175171
0.010454; 0.190857; 0.165710
0.010476; 0.197144; 0.156555
0.010499; 0.203369; 0.146362
0.010522; 0.208374; 0.136597
0.010544; 0.214355; 0.126526
0.010567; 0.217285; 0.115967
0.010590; 0.223328; 0.106079
0.010612; 0.228394; 0.095154
0.010635; 0.230652; 0.083801
0.010658; 0.233704; 0.072754
0.010680; 0.237366; 0.061890
0.010703; 0.240356; 0.050354
0.010726; 0.241760; 0.038086
0.010748; 0.242432; 0.026062
0.010771; 0.243713; 0.014771
0.010794; 0.243958; 0.002625
0.010816; 0.243835; -0.009277
0.010839; 0.243164; -0.021118
0.010862; 0.242920; -0.033325
0.010884; 0.241516; -0.045227
0.010907; 0.240112; -0.057068
0.010930; 0.237976; -0.068970
0.010952; 0.235352; -0.080383
0.010975; 0.232483; -0.091736
0.010998; 0.228210; -0.103821
0.011020; 0.224121; -0.114929
0.011043; 0.217957; -0.126587
0.011066; 0.215393; -0.137634
0.011088; 0.211304; -0.148193
0.011111; 0.203735; -0.159302
0.011134; 0.197815; -0.170166
0.011156; 0.190308; -0.180786
0.011179; 0.183655; -0.190796
0.011202; 0.176086; -0.200562
0.011224; 0.169006; -0.209534
0.011247; 0.161865; -0.219177
0.011270; 0.154541; -0.227783
0.011293; 0.145203; -0.236267
0.011315; 0.137146; -0.244385
0.011338; 0.128906; -0.251709
0.011361; 0.119507; -0.258728
0.011383; 0.111633; -0.265076
0.011406; 0.102234; -0.272034
0.011429; 0.093994; -0.277222
0.011451; 0.084717; -0.282532
0.011474; 0.075134; -0.286926
0.011497; 0.065796; -0.290710
0.011519; 0.054810; -0.294434
0.011542; 0.045227; -0.297119
0.011565; 0.034241; -0.299316
0.011587; 0.025391; -0.300964
0.011610; 0.015137; -0.302063
0.011633; 0.003113; -0.302673
0.011655; -0.004211; -0.301575
0.011678; -0.015137; -0.300964
0.011701; -0.026917; -0.299377
0.011723; -0.036255; -0.296814
0.011746; -0.046204; -0.293823
0.011769; -0.056335; -0.289917
0.011791; -0.067078; -0.286682
0.011814; -0.076294; -0.282349
0.011837; -0.087097; -0.277710
0.011859; -0.097290; -0.271606
0.011882; -0.105103; -0.265686
0.011905; -0.114441; -0.259094
0.011927; -0.123169; -0.252258
0.011950; -0.135620; -0.245789
0.011973; -0.143738; -0.237854
0.011995; -0.150879; -0.229736
0.012018; -0.159302; -0.221680
0.012041; -0.167542; -0.212952
0.012063; -0.175171; -0.203308
0.012086; -0.182800; -0.194275
0.012109; -0.189453; -0.185303
0.012132; -0.195679; -0.175354
0.012154; -0.202576; -0.164795
0.012177; -0.206116; -0.154480
0.012200; -0.213501; -0.143738
0.012222; -0.218018; -0.132812
0.012245; -0.221741; -0.121155
0.012268; -0.227173; -0.109924
0.012290; -0.232971; -0.098083
0.012313; -0.234680; -0.085205
0.012336; -0.237671; -0.073242
0.012358; -0.239807; -0.060059
0.012381; -0.241943; -0.047302
0.012404; -0.243896; -0.034485
0.012426; -0.244690; -0.020935
0.012449; -0.245850; -0.007324
0.012472; -0.245544; 0.005920
0.012494; -0.244995; 0.019653
0.012517; -0.244141; 0.032959
0.012540; -0.244385; 0.046326
0.012562; -0.242371; 0.059753
0.012585; -0.240173; 0.072632
0.012608; -0.238647; 0.085876
0.012630; -0.235596; 0.099060
0.012653; -0.230774; 0.112610
0.012676; -0.227356; 0.124939
0.012698; -0.224548; 0.136353
0.012721; -0.219727; 0.149231
0.012744; -0.214050; 0.160583
0.012766; -0.207031; 0.172363
0.012789; -0.202698; 0.183411
0.012812; -0.198853; 0.193787
0.012834; -0.190002; 0.204041
0.012857; -0.183899; 0.213623
0.012880; -0.175659; 0.223511
0.012902; -0.167908; 0.232056
0.012925; -0.161072; 0.240173
0.012948; -0.151917; 0.247864
0.012971; -0.141968; 0.256592
0.012993; -0.134644; 0.262878
0.013016; -0.126465; 0.268860
0.013039; -0.117981; 0.274719
0.013061; -0.108765; 0.279663
0.013084; -0.099182; 0.284607
0.013107; -0.089966; 0.289307
0.013129; -0.080078; 0.292908
0.013152; -0.070129; 0.295532
0.013175; -0.059692; 0.297913
0.013197; -0.051331; 0.299316
0.013220; -0.040222; 0.301025
0.013243; -0.030334; 0.300964
0.013265; -0.019714; 0.300415
0.013288; -0.012268; 0.299561
0.013311; -0.000549; 0.298218
0.013333; 0.011169; 0.296448
0.013356; 0.020935; 0.293579
0.013379; 0.031250; 0.290649
0.013401; 0.039368; 0.286316
0.013424; 0.049927; 0.282288
0.013447; 0.059570; 0.277893
0.013469; 0.069336; 0.272400
0.013492; 0.079285; 0.267334
0.013515; 0.089417; 0.261047
0.013537; 0.100098; 0.254639
0.013560; 0.109436; 0.248169
0.013583; 0.118103; 0.241455
0.013605; 0.126221; 0.233459
0.013628; 0.134583; 0.225708
0.013651; 0.143921; 0.218079
0.013673; 0.151428; 0.209839
0.013696; 0.159119; 0.201538
0.013719; 0.167542; 0.192566
0.013741; 0.174561; 0.183594
0.013764; 0.181458; 0.174561
0.013787; 0.187988; 0.165222
0.013810; 0.195801; 0.155701
0.013832; 0.200317; 0.146118
0.013855; 0.204712; 0.135986
0.013878; 0.212280; 0.126038
0.013900; 0.214844; 0.115540
0.013923; 0.220032; 0.104797
0.013946; 0.223877; 0.094482
0.013968; 0.227356; 0.082703
0.013991; 0.231323; 0.071655
0.014014; 0.236084; 0.060364
0.014036; 0.237854; 0.048035
0.014059; 0.239136; 0.036926
0.014082; 0.239502; 0.024597
0.014104; 0.238831; 0.012512
0.014127; 0.240112; 0.000854
0.014150; 0.240784; -0.011108
0.014172; 0.241699; -0.023193
0.014195; 0.239014; -0.035645
0.014218; 0.238342; -0.047363
0.014240; 0.236572; -0.059265
0.014263; 0.234192; -0.070862
0.014286; 0.232239; -0.082336
0.014308; 0.228760; -0.094543
0.014331; 0.226868; -0.105835
0.014354; 0.221436; -0.117187
0.014376; 0.217285; -0.128967
0.014399; 0.212219; -0.140198
0.014422; 0.207153; -0.150818
0.014444; 0.203247; -0.161377
0.014467; 0.197754; -0.171936
0.014490; 0.189575; -0.182983
0.014512; 0.182861; -0.193115
0.014535; 0.176758; -0.202393
0.014558; 0.168396; -0.212402
0.014580; 0.161743; -0.221069
0.014603; 0.153564; -0.230957
