Time [s];Amplitude;Amplitude;
0.000000; 0.058716; -0.144531
0.000023; 0.166382; 0.011353
0.000045; 0.237549; 0.163818
0.000068; 0.260986; 0.280884
0.000091; 0.227417; 0.334595
0.000113; 0.148437; 0.316467
0.000136; 0.034241; 0.231628
0.000159; -0.084656; 0.098328
0.000181; -0.184082; -0.059692
0.000204; -0.243164; -0.208801
0.000227; -0.246338; -0.311096
0.000249; -0.197571; -0.344238
0.000272; -0.103577; -0.300720
0.000295; 0.013916; -0.194519
0.000317; 0.129517; -0.046570
0.000340; 0.217896; 0.111206
0.000363; 0.257690; 0.244385
0.000385; 0.245056; 0.323914
0.000408; 0.181641; 0.331543
0.000431; 0.075989; 0.269104
0.000454; -0.041992; 0.151184
0.000476; -0.151184; -0.001160
0.000499; -0.227295; -0.157776
0.000522; -0.252014; -0.280701
0.000544; -0.222534; -0.341309
0.000567; -0.141846; -0.324585
0.000590; -0.028931; -0.238892
0.000612; 0.089600; -0.103088
0.000635; 0.189209; 0.055054
0.000658; 0.247803; 0.201355
0.000680; 0.257324; 0.303467
0.000703; 0.209412; 0.337219
0.000726; 0.117065; 0.300110
0.000748; 0.002319; 0.200134
0.000771; -0.115479; 0.057068
0.000794; -0.205078; -0.102417
0.000816; -0.249939; -0.241882
0.000839; -0.239502; -0.327515
0.000862; -0.174988; -0.338623
0.000884; -0.073547; -0.276855
0.000907; 0.046326; -0.156921
0.000930; 0.157837; -0.002808
0.000952; 0.234131; 0.152405
0.000975; 0.258972; 0.273437
0.000998; 0.232361; 0.333923
0.001020; 0.155884; 0.322205
0.001043; 0.044617; 0.243164
0.001066; -0.076294; 0.113220
0.001088; -0.179138; -0.044189
0.001111; -0.240295; -0.194824
0.001134; -0.250366; -0.303406
0.001156; -0.204773; -0.342651
0.001179; -0.114929; -0.306396
0.001202; 0.002991; -0.204468
0.001224; 0.119446; -0.059875
0.001247; 0.211304; 0.099182
0.001270; 0.256470; 0.236267
0.001293; 0.247437; 0.321716
0.001315; 0.187012; 0.335876
0.001338; 0.087463; 0.280029
0.001361; -0.031677; 0.166565
0.001383; -0.145813; 0.015137
0.001406; -0.225342; -0.141968
0.001429; -0.254883; -0.269714
0.001451; -0.229858; -0.336853
0.001474; -0.153381; -0.327209
0.001497; -0.042603; -0.247131
0.001519; 0.077454; -0.115234
0.001542; 0.181152; 0.042358
0.001565; 0.245605; 0.191284
0.001587; 0.257202; 0.298096
0.001610; 0.212952; 0.338562
0.001633; 0.126404; 0.307678
0.001655; 0.011780; 0.212646
0.001678; -0.106934; 0.072205
0.001701; -0.201111; -0.086914
0.001723; -0.249756; -0.229187
0.001746; -0.243225; -0.320984
0.001769; -0.183838; -0.339539
0.001791; -0.085937; -0.284119
0.001814; 0.033813; -0.168152
0.001837; 0.146362; -0.015991
0.001859; 0.227356; 0.139771
0.001882; 0.260620; 0.265808
0.001905; 0.234680; 0.331604
0.001927; 0.162720; 0.326599
0.001950; 0.055359; 0.253479
0.001973; -0.065552; 0.126953
0.001995; -0.170959; -0.029297
0.002018; -0.238770; -0.182312
0.002041; -0.253845; -0.295471
0.002063; -0.211609; -0.341675
0.002086; -0.124329; -0.311523
0.002109; -0.010437; -0.215454
0.002132; 0.108765; -0.073486
0.002154; 0.203308; 0.085144
0.002177; 0.254028; 0.225769
0.002200; 0.250305; 0.315857
0.002222; 0.193970; 0.337036
0.002245; 0.096741; 0.287109
0.002268; -0.023621; 0.177368
0.002290; -0.136597; 0.029236
0.002313; -0.220093; -0.129028
0.002336; -0.253479; -0.260925
0.002358; -0.233398; -0.334412
0.002381; -0.162354; -0.331543
0.002404; -0.055115; -0.257690
0.002426; 0.066040; -0.129028
0.002449; 0.170837; 0.027161
0.002472; 0.239929; 0.178284
0.002494; 0.258301; 0.290527
0.002517; 0.217590; 0.337952
0.002540; 0.135193; 0.313232
0.002562; 0.020081; 0.222961
0.002585; -0.099121; 0.085937
0.002608; -0.197205; -0.072571
0.002630; -0.249451; -0.217712
0.002653; -0.247986; -0.315796
0.002676; -0.193848; -0.341125
0.002698; -0.096313; -0.291687
0.002721; 0.021667; -0.180969
0.002744; 0.136169; -0.030762
0.002766; 0.220093; 0.126282
0.002789; 0.254761; 0.255371
0.002812; 0.238831; 0.328857
0.002834; 0.168152; 0.330078
0.002857; 0.064026; 0.262695
0.002880; -0.055481; 0.140686
0.002902; -0.164795; -0.014099
0.002925; -0.236389; -0.169678
0.002948; -0.256775; -0.288208
0.002971; -0.219604; -0.341248
0.002993; -0.136475; -0.317932
0.003016; -0.022888; -0.227051
0.003039; 0.095459; -0.088440
0.003061; 0.194031; 0.070068
0.003084; 0.247986; 0.213562
0.003107; 0.249329; 0.309998
0.003129; 0.197144; 0.337097
0.003152; 0.103699; 0.293823
0.003175; -0.013489; 0.189453
0.003197; -0.129395; 0.043640
0.003220; -0.216125; -0.115845
0.003243; -0.256042; -0.251343
0.003265; -0.237976; -0.330383
0.003288; -0.170044; -0.335449
0.003311; -0.066833; -0.267334
0.003333; 0.052734; -0.142639
0.003356; 0.161011; 0.012512
0.003379; 0.233459; 0.165588
0.003401; 0.255798; 0.281982
0.003424; 0.222412; 0.335815
0.003447; 0.142883; 0.317993
0.003469; 0.030457; 0.232910
0.003492; -0.089905; 0.099854
0.003515; -0.189331; -0.058472
0.003537; -0.248840; -0.207214
0.003560; -0.251526; -0.309570
0.003583; -0.201843; -0.342346
0.003605; -0.108215; -0.299377
0.003628; 0.009155; -0.192932
0.003651; 0.125671; -0.045776
0.003673; 0.213684; 0.112671
0.003696; 0.253662; 0.246033
0.003719; 0.241516; 0.324768
0.003741; 0.176208; 0.332642
0.003764; 0.072998; 0.270569
0.003787; -0.049072; 0.151917
0.003810; -0.157410; -0.000610
0.003832; -0.231628; -0.156616
0.003855; -0.257507; -0.280090
0.003878; -0.226013; -0.339417
0.003900; -0.146118; -0.323425
0.003923; -0.035095; -0.237671
0.003946; 0.086670; -0.102295
0.003968; 0.185913; 0.055603
0.003991; 0.244385; 0.202148
0.004014; 0.252686; 0.303711
0.004036; 0.204712; 0.338379
0.004059; 0.113892; 0.300659
0.004082; -0.004456; 0.200378
0.004104; -0.120056; 0.057556
0.004127; -0.212097; -0.101990
0.004150; -0.254700; -0.240662
0.004172; -0.245056; -0.326843
0.004195; -0.181152; -0.338318
0.004218; -0.077332; -0.275635
0.004240; 0.041565; -0.155823
0.004263; 0.152405; -0.001892
0.004286; 0.228882; 0.152771
0.004308; 0.256653; 0.274658
0.004331; 0.225525; 0.334106
0.004354; 0.149292; 0.322021
0.004376; 0.040466; 0.243774
0.004399; -0.080933; 0.113464
0.004422; -0.182861; -0.043762
0.004444; -0.245239; -0.194824
0.004467; -0.254089; -0.303406
0.004490; -0.210083; -0.342957
0.004512; -0.118042; -0.306580
0.004535; -0.001953; -0.205383
0.004558; 0.115540; -0.060242
0.004580; 0.207214; 0.098206
0.004603; 0.251709; 0.235352
0.004626; 0.244263; 0.320068
0.004649; 0.182739; 0.334961
0.004671; 0.085144; 0.279358
0.004694; -0.036255; 0.165161
0.004717; -0.148865; 0.013977
0.004739; -0.227600; -0.143311
0.004762; -0.256836; -0.270935
0.004785; -0.230164; -0.337952
0.004807; -0.155823; -0.328491
0.004830; -0.044434; -0.248047
0.004853; 0.075684; -0.115784
0.004875; 0.178467; 0.041077
0.004898; 0.241577; 0.189575
0.004921; 0.253418; 0.296692
0.004943; 0.211365; 0.337830
0.004966; 0.123047; 0.306213
0.004989; 0.009033; 0.211975
0.005011; -0.110901; 0.071167
0.005034; -0.204163; -0.087585
0.005057; -0.253113; -0.230286
0.005079; -0.247314; -0.321777
0.005102; -0.189026; -0.340759
0.005125; -0.090820; -0.285156
0.005147; 0.029175; -0.169128
0.005170; 0.141418; -0.017639
0.005193; 0.223450; 0.139282
0.005215; 0.254150; 0.265076
0.005238; 0.231689; 0.331299
0.005261; 0.159668; 0.325989
0.005283; 0.050293; 0.252808
0.005306; -0.070129; 0.126221
0.005329; -0.175110; -0.029663
0.005351; -0.243225; -0.183044
0.005374; -0.257507; -0.295898
0.005397; -0.215637; -0.342712
0.005420; -0.129944; -0.313110
0.005442; -0.014526; -0.216309
0.005465; 0.103821; -0.074402
0.005488; 0.199036; 0.084656
0.005510; 0.249023; 0.225037
0.005533; 0.245117; 0.314880
0.005556; 0.189209; 0.336060
0.005578; 0.091858; 0.286621
0.005601; -0.025513; 0.176941
0.005624; -0.140991; 0.028870
0.005646; -0.225281; -0.130005
0.005669; -0.257568; -0.261353
0.005692; -0.237793; -0.334473
0.005714; -0.165955; -0.332214
0.005737; -0.058411; -0.258240
0.005760; 0.062073; -0.129883
0.005782; 0.168213; 0.027161
0.005805; 0.237000; 0.177917
0.005828; 0.254333; 0.290649
0.005850; 0.214478; 0.337097
0.005873; 0.131226; 0.312317
0.005896; 0.017700; 0.222473
0.005918; -0.102417; 0.085205
0.005941; -0.198730; -0.073853
0.005964; -0.252075; -0.219910
0.005986; -0.249878; -0.316162
0.006009; -0.195496; -0.342285
0.006032; -0.099609; -0.292542
0.006054; 0.017700; -0.181519
0.006077; 0.133179; -0.031372
0.006100; 0.216003; 0.125854
0.006122; 0.252686; 0.255920
0.006145; 0.236023; 0.328491
0.006168; 0.164612; 0.329041
0.006190; 0.059753; 0.261108
0.006213; -0.060364; 0.139282
0.006236; -0.166626; -0.014587
0.006259; -0.240112; -0.170532
0.006281; -0.259338; -0.288940
0.006304; -0.222900; -0.342041
0.006327; -0.140991; -0.318665
0.006349; -0.026245; -0.227600
0.006372; 0.091858; -0.088928
0.006395; 0.188599; 0.069153
0.006417; 0.246277; 0.213623
0.006440; 0.247559; 0.309692
0.006463; 0.196716; 0.337219
0.006485; 0.101440; 0.293823
0.006508; -0.018677; 0.188538
0.006531; -0.132385; 0.043030
0.006553; -0.219116; -0.115784
0.006576; -0.257874; -0.251343
0.006599; -0.244263; -0.331116
0.006621; -0.174988; -0.335815
0.006644; -0.070190; -0.267456
0.006667; 0.050232; -0.143188
0.006689; 0.157898; 0.012146
0.006712; 0.230164; 0.166077
0.006735; 0.252258; 0.282227
0.006757; 0.217163; 0.335449
0.006780; 0.138794; 0.317383
0.006803; 0.027039; 0.232971
0.006825; -0.091553; 0.099487
0.006848; -0.192871; -0.058716
0.006871; -0.251282; -0.207947
0.006893; -0.254639; -0.310852
0.006916; -0.204773; -0.342957
0.006939; -0.111572; -0.300232
0.006961; 0.006348; -0.193604
0.006984; 0.121277; -0.046387
0.007007; 0.208679; 0.111938
0.007029; 0.251404; 0.245789
0.007052; 0.237183; 0.324280
0.007075; 0.173279; 0.331726
0.007098; 0.068726; 0.269775
0.007120; -0.050598; 0.151550
0.007143; -0.159851; -0.000854
0.007166; -0.235291; -0.157959
0.007188; -0.260742; -0.281311
0.007211; -0.230469; -0.341125
0.007234; -0.151062; -0.325256
0.007256; -0.037842; -0.239380
0.007279; 0.082336; -0.104004
0.007302; 0.181274; 0.054016
0.007324; 0.242493; 0.200867
0.007347; 0.248657; 0.301941
0.007370; 0.202942; 0.336731
0.007392; 0.111572; 0.299500
0.007415; -0.005005; 0.198730
0.007438; -0.121826; 0.055664
0.007460; -0.212952; -0.103394
0.007483; -0.257996; -0.243042
0.007506; -0.246460; -0.328003
0.007528; -0.181763; -0.340210
0.007551; -0.079041; -0.278076
0.007574; 0.039124; -0.158203
0.007596; 0.149902; -0.004517
0.007619; 0.227356; 0.150879
0.007642; 0.253113; 0.271606
0.007664; 0.228149; 0.332031
0.007687; 0.148682; 0.320068
0.007710; 0.038574; 0.241699
0.007732; -0.079712; 0.111206
0.007755; -0.184143; -0.046021
0.007778; -0.245544; -0.196716
0.007800; -0.256104; -0.306091
0.007823; -0.210571; -0.345398
0.007846; -0.121094; -0.308838
0.007868; -0.003906; -0.207397
0.007891; 0.113770; -0.062500
0.007914; 0.204834; 0.096069
0.007937; 0.252625; 0.233276
0.007959; 0.241211; 0.318054
0.007982; 0.182190; 0.332275
0.008005; 0.082642; 0.276611
0.008027; -0.039001; 0.162476
0.008050; -0.150696; 0.012390
0.008073; -0.229431; -0.145142
0.008095; -0.258484; -0.273071
0.008118; -0.232849; -0.339478
0.008141; -0.156311; -0.329956
0.008163; -0.047729; -0.250000
0.008186; 0.071716; -0.118591
0.008209; 0.175171; 0.038940
0.008231; 0.239929; 0.188416
0.008254; 0.251770; 0.295288
0.008277; 0.209839; 0.335815
0.008299; 0.120911; 0.304321
0.008322; 0.005676; 0.209717
0.008345; -0.111450; 0.070068
0.008367; -0.204651; -0.089050
0.008390; -0.253723; -0.232056
0.008413; -0.247375; -0.323486
0.008435; -0.189209; -0.342407
0.008458; -0.089233; -0.286316
0.008481; 0.030640; -0.170410
0.008503; 0.141235; -0.018982
0.008526; 0.222595; 0.137329
0.008549; 0.252747; 0.263184
0.008571; 0.230835; 0.330139
0.008594; 0.157349; 0.324646
0.008617; 0.049927; 0.251038
0.008639; -0.069763; 0.125122
0.008662; -0.176819; -0.031311
0.008685; -0.243774; -0.184387
0.008707; -0.257935; -0.297913
0.008730; -0.217285; -0.344421
0.008753; -0.130981; -0.314453
0.008776; -0.015320; -0.218079
0.008798; 0.104309; -0.075378
0.008821; 0.198669; 0.083069
0.008844; 0.247925; 0.223328
0.008866; 0.245361; 0.314148
0.008889; 0.188965; 0.335388
0.008912; 0.091736; 0.285583
0.008934; -0.026123; 0.176453
0.008957; -0.141602; 0.027893
0.008980; -0.225098; -0.130798
0.009002; -0.259399; -0.262756
0.009025; -0.237244; -0.335632
0.009048; -0.165588; -0.333435
0.009070; -0.058228; -0.258972
0.009093; 0.062073; -0.130554
0.009116; 0.167297; 0.026001
0.009138; 0.235474; 0.177124
0.009161; 0.253479; 0.289490
0.009184; 0.213806; 0.336792
0.009206; 0.130920; 0.311951
0.009229; 0.018127; 0.222534
0.009252; -0.103882; 0.085327
0.009274; -0.199097; -0.072998
0.009297; -0.250610; -0.218567
0.009320; -0.251465; -0.316162
0.009342; -0.197998; -0.342224
0.009365; -0.100708; -0.292236
0.009388; 0.018555; -0.181030
0.009410; 0.134033; -0.031250
0.009433; 0.217407; 0.126343
0.009456; 0.252869; 0.256531
0.009478; 0.233704; 0.328613
0.009501; 0.165405; 0.329895
0.009524; 0.059326; 0.262512
0.009546; -0.060364; 0.140686
0.009569; -0.167969; -0.013672
0.009592; -0.238464; -0.168152
0.009615; -0.258545; -0.286865
0.009637; -0.223938; -0.340881
0.009660; -0.139648; -0.317322
0.009683; -0.027466; -0.226196
0.009705; 0.092163; -0.087524
0.009728; 0.190735; 0.071350
0.009751; 0.246216; 0.215515
0.009773; 0.246948; 0.311646
0.009796; 0.194824; 0.338684
0.009819; 0.101440; 0.294800
0.009841; -0.015381; 0.190552
0.009864; -0.133118; 0.044006
0.009887; -0.220215; -0.114990
0.009909; -0.257202; -0.250549
0.009932; -0.243713; -0.330139
0.009955; -0.175476; -0.334473
0.009977; -0.069153; -0.266296
0.010000; 0.049072; -0.142151
0.010023; 0.159790; 0.013184
0.010045; 0.230896; 0.166016
0.010068; 0.252808; 0.283020
0.010091; 0.219116; 0.336487
0.010113; 0.139099; 0.317993
0.010136; 0.027588; 0.234070
0.010159; -0.093201; 0.100525
0.010181; -0.193420; -0.058289
0.010204; -0.251343; -0.206421
0.010227; -0.254456; -0.309082
0.010249; -0.204834; -0.342102
0.010272; -0.111084; -0.298828
0.010295; 0.006104; -0.192749
0.010317; 0.122498; -0.045166
0.010340; 0.209656; 0.112793
0.010363; 0.251953; 0.247131
0.010385; 0.238403; 0.325500
0.010408; 0.172791; 0.333801
0.010431; 0.068787; 0.271423
0.010454; -0.050415; 0.153503
0.010476; -0.160095; 0.000854
0.010499; -0.235352; -0.156189
0.010522; -0.259521; -0.279358
0.010544; -0.229309; -0.339478
0.010567; -0.149109; -0.322815
0.010590; -0.037292; -0.237244
0.010612; 0.082520; -0.101318
0.010635; 0.183777; 0.056702
0.010658; 0.243225; 0.203552
0.010680; 0.249756; 0.304443
0.010703; 0.204224; 0.339478
0.010726; 0.111816; 0.301331
0.010748; -0.005188; 0.200989
0.010771; -0.120483; 0.058716
0.010794; -0.210815; -0.100464
0.010816; -0.255981; -0.240479
0.010839; -0.247070; -0.326477
0.010862; -0.183655; -0.337830
0.010884; -0.079834; -0.275696
0.010907; 0.040222; -0.154846
0.010930; 0.150635; -0.001892
0.010952; 0.227844; 0.153137
0.010975; 0.253967; 0.274353
0.010998; 0.225830; 0.334534
0.011020; 0.148987; 0.322876
0.011043; 0.037659; 0.243652
0.011066; -0.081482; 0.113831
0.011088; -0.183533; -0.043579
0.011111; -0.246399; -0.194336
0.011134; -0.257141; -0.302795
0.011156; -0.211426; -0.342651
0.011179; -0.120911; -0.305786
0.011202; -0.004578; -0.204346
0.011224; 0.113708; -0.059631
0.011247; 0.206238; 0.099243
0.011270; 0.250854; 0.236389
0.011293; 0.242676; 0.321411
0.011315; 0.181885; 0.335815
0.011338; 0.081299; 0.279602
0.011361; -0.037720; 0.165588
0.011383; -0.150635; 0.014832
0.011406; -0.231140; -0.143005
0.011429; -0.260132; -0.270447
0.011451; -0.232483; -0.336853
0.011474; -0.156677; -0.327393
0.011497; -0.047119; -0.247620
0.011519; 0.072937; -0.115417
0.011542; 0.175293; 0.041992
0.011565; 0.240356; 0.191223
0.011587; 0.252197; 0.298035
0.011610; 0.208374; 0.338745
0.011633; 0.121765; 0.307617
0.011655; 0.006592; 0.212280
0.011678; -0.111755; 0.072327
0.011701; -0.206421; -0.087036
0.011723; -0.254150; -0.229187
0.011746; -0.248718; -0.321228
0.011769; -0.189392; -0.340149
0.011791; -0.088928; -0.283936
0.011814; 0.030090; -0.167969
0.011837; 0.142883; -0.015869
0.011859; 0.222656; 0.139771
0.011882; 0.255066; 0.265869
0.011905; 0.230347; 0.332336
0.011927; 0.158752; 0.326660
0.011950; 0.051208; 0.253235
0.011973; -0.070312; 0.127136
0.011995; -0.174255; -0.028564
0.012018; -0.243225; -0.182129
0.012041; -0.256226; -0.295898
0.012063; -0.215271; -0.341919
0.012086; -0.128601; -0.311890
0.012109; -0.013428; -0.215576
0.012132; 0.104126; -0.074097
0.012154; 0.199158; 0.085510
0.012177; 0.250488; 0.225464
0.012200; 0.246826; 0.316101
0.012222; 0.190308; 0.336914
0.012245; 0.092529; 0.287231
0.012268; -0.025085; 0.178040
0.012290; -0.139771; 0.029297
0.012313; -0.222961; -0.128540
0.012336; -0.257751; -0.260986
0.012358; -0.237122; -0.333923
0.012381; -0.164856; -0.332031
0.012404; -0.057190; -0.257568
0.012426; 0.064087; -0.129028
0.012449; 0.170837; 0.028015
0.012472; 0.237000; 0.178528
0.012494; 0.254150; 0.290466
0.012517; 0.215759; 0.338074
0.012540; 0.131714; 0.312805
0.012562; 0.017151; 0.223450
0.012585; -0.100647; 0.086365
0.012608; -0.196350; -0.072083
0.012630; -0.249634; -0.218201
0.012653; -0.247620; -0.315674
0.012676; -0.195129; -0.341858
0.012698; -0.098145; -0.291687
0.012721; 0.021240; -0.180298
0.012744; 0.133728; -0.030823
0.012766; 0.218628; 0.126587
0.012789; 0.255249; 0.256287
0.012812; 0.237000; 0.329285
0.012834; 0.167908; 0.330383
0.012857; 0.060120; 0.262573
0.012880; -0.058838; 0.140198
0.012902; -0.167664; -0.014404
0.012925; -0.239746; -0.169556
0.012948; -0.256958; -0.287537
0.012971; -0.221619; -0.341003
0.012993; -0.136780; -0.317993
0.013016; -0.023865; -0.226624
0.013039; 0.096008; -0.088196
0.013061; 0.191162; 0.070251
0.013084; 0.248657; 0.214478
0.013107; 0.249695; 0.310242
0.013129; 0.197449; 0.338379
0.013152; 0.101196; 0.293640
0.013175; -0.015991; 0.189270
0.013197; -0.129456; 0.043884
0.013220; -0.217163; -0.115295
0.013243; -0.254883; -0.250854
0.013265; -0.239746; -0.330566
0.013288; -0.173035; -0.335205
0.013311; -0.067505; -0.266296
0.013333; 0.053650; -0.142029
0.013356; 0.161194; 0.012939
0.013379; 0.234375; 0.166138
0.013401; 0.255005; 0.282593
0.013424; 0.223389; 0.337280
0.013447; 0.142273; 0.318176
0.013469; 0.029114; 0.234009
0.013492; -0.088562; 0.100159
0.013515; -0.188782; -0.057922
0.013537; -0.248901; -0.206421
0.013560; -0.251404; -0.309692
0.013583; -0.202271; -0.342590
0.013605; -0.108582; -0.299072
0.013628; 0.010132; -0.192139
0.013651; 0.125916; -0.045410
0.013673; 0.213928; 0.112915
0.013696; 0.254639; 0.246521
0.013719; 0.241089; 0.324890
0.013741; 0.176453; 0.332703
0.013764; 0.073547; 0.271301
0.013787; -0.046570; 0.152832
0.013810; -0.157227; 0.000061
0.013832; -0.232056; -0.156311
0.013855; -0.255859; -0.279358
0.013878; -0.225586; -0.339294
0.013900; -0.145630; -0.323425
0.013923; -0.033997; -0.237610
0.013946; 0.085876; -0.101807
0.013968; 0.186340; 0.056641
0.013991; 0.246582; 0.203430
0.014014; 0.251709; 0.304077
0.014036; 0.203979; 0.338684
0.014059; 0.113647; 0.301025
0.014082; -0.002869; 0.201233
0.014104; -0.119934; 0.057861
0.014127; -0.210632; -0.101135
0.014150; -0.255188; -0.240540
0.014172; -0.243713; -0.326599
0.014195; -0.180359; -0.337708
0.014218; -0.077271; -0.275452
0.014240; 0.041321; -0.155701
0.014263; 0.152222; -0.001648
0.014286; 0.229675; 0.153198
0.014308; 0.254944; 0.274353
0.014331; 0.228088; 0.334778
0.014354; 0.150696; 0.322510
0.014376; 0.040955; 0.243896
0.014399; -0.077515; 0.113831
0.014422; -0.182739; -0.043701
0.014444; -0.245361; -0.194458
0.014467; -0.252869; -0.302795
0.014490; -0.208862; -0.342407
0.014512; -0.117981; -0.306091
0.014535; -0.001465; -0.204346
0.014558; 0.114502; -0.059509
0.014580; 0.207397; 0.099182
