Time [s];Amplitude;Amplitude;
0.000000; 0.171631; -0.268921
0.000023; 0.474609; -0.143799
0.000045; 0.672485; 0.011658
0.000068; 0.727905; 0.166748
0.000091; 0.623230; 0.284180
0.000113; 0.383423; 0.339050
0.000136; 0.060608; 0.321411
0.000159; -0.279114; 0.237000
0.000181; -0.557983; 0.102600
0.000204; -0.718689; -0.056702
0.000227; -0.722473; -0.206787
0.000249; -0.568542; -0.311707
0.000272; -0.289001; -0.344360
0.000295; 0.050964; -0.301575
0.000317; 0.376343; -0.194824
0.000340; 0.618042; -0.046631
0.000363; 0.728271; 0.112488
0.000385; 0.681030; 0.247864
0.000408; 0.486450; 0.327759
0.000431; 0.184387; 0.336426
0.000454; -0.157288; 0.274414
0.000476; -0.467163; 0.155823
0.000499; -0.674988; 0.002502
0.000522; -0.738953; -0.155518
0.000544; -0.640381; -0.280334
0.000567; -0.400879; -0.341431
0.000590; -0.074524; -0.325500
0.000612; 0.264709; -0.239868
0.000635; 0.541382; -0.103638
0.000658; 0.705750; 0.055664
0.000680; 0.717102; 0.203857
0.000703; 0.571106; 0.305786
0.000726; 0.301819; 0.341858
0.000748; -0.031555; 0.304993
0.000771; -0.362610; 0.204041
0.000794; -0.615479; 0.060120
0.000816; -0.735107; -0.100220
0.000839; -0.694885; -0.241150
0.000862; -0.500305; -0.327881
0.000884; -0.197327; -0.339966
0.000907; 0.144226; -0.277893
0.000930; 0.452820; -0.156982
0.000952; 0.662109; -0.002991
0.000975; 0.730408; 0.153259
0.000998; 0.641663; 0.275940
0.001020; 0.411987; 0.337463
0.001043; 0.091980; 0.326233
0.001066; -0.248901; 0.246704
0.001088; -0.535217; 0.116333
0.001111; -0.708191; -0.041748
0.001134; -0.726807; -0.194519
0.001156; -0.586487; -0.304871
0.001179; -0.316223; -0.345276
0.001202; 0.020569; -0.309082
0.001224; 0.349243; -0.206787
0.001247; 0.601624; -0.061096
0.001270; 0.723816; 0.098083
0.001293; 0.693359; 0.237183
0.001315; 0.509766; 0.323120
0.001338; 0.215088; 0.338501
0.001361; -0.127075; 0.282532
0.001383; -0.441650; 0.168335
0.001406; -0.662354; 0.016418
0.001429; -0.739990; -0.142578
0.001451; -0.655396; -0.272278
0.001474; -0.424744; -0.339172
0.001497; -0.104614; -0.330444
0.001519; 0.236023; -0.250610
0.001542; 0.523621; -0.117554
0.001565; 0.696838; 0.040283
0.001587; 0.722717; 0.191406
0.001610; 0.592651; 0.299622
0.001633; 0.332031; 0.341125
0.001655; -0.003540; 0.310120
0.001678; -0.333679; 0.215576
0.001701; -0.595886; 0.074402
0.001723; -0.728577; -0.086243
0.001746; -0.702271; -0.229919
0.001769; -0.522095; -0.323364
0.001791; -0.228821; -0.343201
0.001814; 0.114380; -0.286560
0.001837; 0.428345; -0.170776
0.001859; 0.650818; -0.017822
0.001882; 0.731140; 0.140076
0.001905; 0.656860; 0.267029
0.001927; 0.439026; 0.334290
0.001950; 0.122437; 0.329407
0.001973; -0.217041; 0.256042
0.001995; -0.512329; 0.129395
0.002018; -0.696045; -0.027039
0.002041; -0.731934; -0.182434
0.002063; -0.603821; -0.297607
0.002086; -0.343994; -0.344849
0.002109; -0.009155; -0.315125
0.002132; 0.324585; -0.218140
0.002154; 0.584473; -0.075684
0.002177; 0.721130; 0.084351
0.002200; 0.705139; 0.226807
0.002222; 0.533569; 0.317749
0.002245; 0.246033; 0.339661
0.002268; -0.094299; 0.290710
0.002290; -0.414185; 0.180420
0.002313; -0.644714; 0.031067
0.002336; -0.737183; -0.128723
0.002358; -0.666260; -0.262085
0.002381; -0.451355; -0.336304
0.002404; -0.135498; -0.334534
0.002426; 0.206482; -0.260254
0.002449; 0.499939; -0.130981
0.002472; 0.686829; 0.026184
0.002494; 0.726196; 0.178833
0.002517; 0.610901; 0.292175
0.002540; 0.358582; 0.339905
0.002562; 0.031128; 0.316223
0.002585; -0.305237; 0.226318
0.002608; -0.575989; 0.088196
0.002630; -0.723328; -0.072083
0.002653; -0.713257; -0.219055
0.002676; -0.545349; -0.317749
0.002698; -0.257751; -0.344116
0.002721; 0.082458; -0.295044
0.002744; 0.403809; -0.182800
0.002766; 0.636780; -0.031860
0.002789; 0.730469; 0.126160
0.002812; 0.671936; 0.257080
0.002834; 0.462708; 0.330688
0.002857; 0.154236; 0.333008
0.002880; -0.187073; 0.265381
0.002902; -0.489929; 0.142151
0.002925; -0.687012; -0.012817
0.002948; -0.734863; -0.169495
0.002971; -0.622437; -0.289978
0.002993; -0.371460; -0.343872
0.003016; -0.040405; -0.321289
0.003039; 0.294617; -0.229736
0.003061; 0.565186; -0.090515
0.003084; 0.713928; 0.069214
0.003107; 0.711548; 0.214844
0.003129; 0.555725; 0.312256
0.003152; 0.277283; 0.340820
0.003175; -0.062378; 0.296814
0.003197; -0.386719; 0.192017
0.003220; -0.628174; 0.045715
0.003243; -0.734741; -0.115112
0.003265; -0.679382; -0.252075
0.003288; -0.475769; -0.333313
0.003311; -0.164795; -0.338257
0.003333; 0.179382; -0.269226
0.003356; 0.478760; -0.144836
0.003379; 0.676208; 0.010681
0.003401; 0.731812; 0.165710
0.003424; 0.630127; 0.283936
0.003447; 0.387512; 0.338379
0.003469; 0.063293; 0.320557
0.003492; -0.275024; 0.235657
0.003515; -0.553345; 0.101929
0.003537; -0.715271; -0.057922
0.003560; -0.719971; -0.208130
0.003583; -0.564697; -0.312134
0.003605; -0.284363; -0.345764
0.003628; 0.055298; -0.302368
0.003651; 0.378357; -0.195801
0.003673; 0.620300; -0.048096
0.003696; 0.729065; 0.111694
0.003719; 0.684021; 0.247131
0.003741; 0.486877; 0.326477
0.003764; 0.186829; 0.335754
0.003787; -0.155334; 0.273132
0.003810; -0.462952; 0.154785
0.003832; -0.674683; 0.000916
0.003855; -0.736755; -0.156738
0.003878; -0.637634; -0.281677
0.003900; -0.398315; -0.342468
0.003923; -0.071655; -0.326355
0.003946; 0.265991; -0.240845
0.003968; 0.544678; -0.104431
0.003991; 0.706604; 0.054443
0.004014; 0.717957; 0.202759
0.004036; 0.574341; 0.305481
0.004059; 0.304504; 0.341003
0.004082; -0.032654; 0.303162
0.004104; -0.359375; 0.203125
0.004127; -0.612366; 0.059509
0.004150; -0.732300; -0.101135
0.004172; -0.693237; -0.242493
0.004195; -0.498718; -0.329163
0.004218; -0.198120; -0.341431
0.004240; 0.145630; -0.279053
0.004263; 0.455872; -0.158752
0.004286; 0.663635; -0.004150
0.004308; 0.734497; 0.152161
0.004331; 0.643433; 0.274597
0.004354; 0.415100; 0.336487
0.004376; 0.095154; 0.325317
0.004399; -0.246704; 0.246155
0.004422; -0.533081; 0.115479
0.004444; -0.707031; -0.043152
0.004467; -0.725159; -0.195679
0.004490; -0.584534; -0.305664
0.004512; -0.315369; -0.346069
0.004535; 0.023315; -0.309387
0.004558; 0.352112; -0.207764
0.004580; 0.604980; -0.062134
0.004603; 0.728027; 0.097839
0.004626; 0.696655; 0.236816
0.004649; 0.512939; 0.322083
0.004671; 0.216492; 0.337219
0.004694; -0.124023; 0.281616
0.004717; -0.438965; 0.167542
0.004739; -0.659180; 0.015503
0.004762; -0.738159; -0.144226
0.004785; -0.652283; -0.272827
0.004807; -0.423218; -0.340027
0.004830; -0.102051; -0.331604
0.004853; 0.238831; -0.251221
0.004875; 0.525085; -0.118713
0.004898; 0.700195; 0.039490
0.004921; 0.726990; 0.190857
0.004943; 0.596191; 0.297974
0.004966; 0.335388; 0.339722
0.004989; 0.001770; 0.308838
0.005011; -0.330200; 0.213684
0.005034; -0.591187; 0.072754
0.005057; -0.726440; -0.088379
0.005079; -0.699280; -0.232178
0.005102; -0.518005; -0.325012
0.005125; -0.224548; -0.344971
0.005147; 0.119507; -0.288574
0.005170; 0.433105; -0.172241
0.005193; 0.655884; -0.019470
0.005215; 0.736938; 0.138000
0.005238; 0.661255; 0.264893
0.005261; 0.441406; 0.332214
0.005283; 0.128174; 0.327454
0.005306; -0.212769; 0.253967
0.005329; -0.507996; 0.127258
0.005351; -0.693909; -0.030029
0.005374; -0.727234; -0.184387
0.005397; -0.599976; -0.299561
0.005420; -0.340210; -0.346924
0.005442; -0.005066; -0.316956
0.005465; 0.326721; -0.220703
0.005488; 0.589233; -0.077942
0.005510; 0.725281; 0.081848
0.005533; 0.707397; 0.223999
0.005556; 0.536499; 0.315308
0.005578; 0.249634; 0.337891
0.005601; -0.090210; 0.288025
0.005624; -0.410706; 0.177979
0.005646; -0.641602; 0.028687
0.005669; -0.735168; -0.131531
0.005692; -0.663086; -0.263855
0.005714; -0.445312; -0.338440
0.005737; -0.130920; -0.337158
0.005760; 0.211060; -0.262451
0.005782; 0.505005; -0.134216
0.005805; 0.693298; 0.023865
0.005828; 0.730896; 0.176392
0.005850; 0.614624; 0.289368
0.005873; 0.363770; 0.337891
0.005896; 0.035217; 0.313599
0.005918; -0.300903; 0.223633
0.005941; -0.571228; 0.085876
0.005964; -0.718750; -0.073914
0.005986; -0.708496; -0.221741
0.006009; -0.540649; -0.320007
0.006032; -0.254211; -0.347046
0.006054; 0.087708; -0.297119
0.006077; 0.406860; -0.184998
0.006100; 0.638428; -0.035156
0.006122; 0.735046; 0.123840
0.006145; 0.674438; 0.254822
0.006168; 0.467224; 0.328613
0.006190; 0.157654; 0.331055
0.006213; -0.182373; 0.263672
0.006236; -0.484985; 0.140625
0.006259; -0.682922; -0.014709
0.006281; -0.731018; -0.171082
0.006304; -0.619751; -0.291626
0.006327; -0.367493; -0.345276
0.006349; -0.038818; -0.322998
0.006372; 0.297241; -0.231506
0.006395; 0.567749; -0.091858
0.006417; 0.717957; 0.067993
0.006440; 0.714478; 0.213684
0.006463; 0.556091; 0.310730
0.006485; 0.278687; 0.339417
0.006508; -0.058350; 0.295959
0.006531; -0.383850; 0.190979
0.006553; -0.626709; 0.044189
0.006576; -0.731812; -0.116211
0.006599; -0.676636; -0.253601
0.006621; -0.471619; -0.333923
0.006644; -0.162170; -0.339111
0.006667; 0.178955; -0.271118
0.006689; 0.481567; -0.146301
0.006712; 0.680420; 0.009888
0.006735; 0.733398; 0.164978
0.006757; 0.631165; 0.282715
0.006780; 0.391296; 0.338074
0.006803; 0.064575; 0.319519
0.006825; -0.272766; 0.235352
0.006848; -0.551758; 0.101501
0.006871; -0.713013; -0.058411
0.006893; -0.718506; -0.208740
0.006916; -0.562744; -0.312866
0.006939; -0.283569; -0.345947
0.006961; 0.054749; -0.302917
0.006984; 0.381104; -0.195740
0.007007; 0.623047; -0.047913
0.007029; 0.731445; 0.111023
0.007052; 0.684448; 0.246094
0.007075; 0.490784; 0.326111
0.007098; 0.189392; 0.335144
0.007120; -0.152893; 0.273499
0.007143; -0.460999; 0.154480
0.007166; -0.670715; 0.001099
0.007188; -0.734192; -0.156860
0.007211; -0.636353; -0.281555
0.007234; -0.394958; -0.341919
0.007256; -0.068787; -0.326538
0.007279; 0.269043; -0.240356
0.007302; 0.547363; -0.104065
0.007324; 0.708496; 0.054565
0.007347; 0.720947; 0.202698
0.007370; 0.576599; 0.305542
0.007392; 0.308105; 0.341064
0.007415; -0.029541; 0.303711
0.007438; -0.358154; 0.203918
0.007460; -0.609985; 0.059814
0.007483; -0.729431; -0.100403
0.007506; -0.689331; -0.240845
0.007528; -0.497253; -0.327881
0.007551; -0.191528; -0.339661
0.007574; 0.148621; -0.277527
0.007596; 0.455322; -0.157043
0.007619; 0.666016; -0.002197
0.007642; 0.733093; 0.153870
0.007664; 0.645630; 0.276611
0.007687; 0.414429; 0.337585
0.007710; 0.095520; 0.325989
0.007732; -0.243835; 0.247314
0.007755; -0.531189; 0.116394
0.007778; -0.705200; -0.042114
0.007800; -0.723816; -0.194458
0.007823; -0.580933; -0.303650
0.007846; -0.311279; -0.344116
0.007868; 0.025085; -0.308594
0.007891; 0.355225; -0.206238
0.007914; 0.606995; -0.060852
0.007937; 0.727905; 0.098511
0.007959; 0.695679; 0.237427
0.007982; 0.513672; 0.322998
0.008005; 0.220520; 0.339172
0.008027; -0.122559; 0.282593
0.008050; -0.436829; 0.168518
0.008073; -0.657043; 0.016663
0.008095; -0.735291; -0.141724
0.008118; -0.650452; -0.271240
0.008141; -0.421936; -0.338989
0.008163; -0.099915; -0.330017
0.008186; 0.240051; -0.250000
0.008209; 0.526184; -0.117126
0.008231; 0.702209; 0.041382
0.008254; 0.726562; 0.191650
0.008277; 0.595703; 0.299744
0.008299; 0.335999; 0.341797
0.008322; 0.002380; 0.310669
0.008345; -0.331543; 0.215271
0.008367; -0.591858; 0.074829
0.008390; -0.724854; -0.085388
0.008413; -0.700562; -0.230347
0.008435; -0.520142; -0.322998
0.008458; -0.224121; -0.342529
0.008481; 0.117859; -0.286255
0.008503; 0.431763; -0.169922
0.008526; 0.653503; -0.017090
0.008549; 0.734802; 0.140198
0.008571; 0.659119; 0.266663
0.008594; 0.439514; 0.334412
0.008617; 0.125732; 0.329712
0.008639; -0.215210; 0.256592
0.008662; -0.510071; 0.129456
0.008685; -0.696350; -0.027771
0.008707; -0.729614; -0.182007
0.008730; -0.601807; -0.296997
0.008753; -0.342041; -0.343994
0.008776; -0.007812; -0.314819
0.008798; 0.324463; -0.218140
0.008821; 0.584167; -0.075684
0.008844; 0.721924; 0.084229
0.008866; 0.704834; 0.227356
0.008889; 0.533875; 0.318298
0.008912; 0.247375; 0.340210
0.008934; -0.095154; 0.289978
0.008957; -0.413696; 0.180664
0.008980; -0.644104; 0.031067
0.009002; -0.737793; -0.128723
0.009025; -0.668213; -0.261780
0.009048; -0.449463; -0.335999
0.009070; -0.132385; -0.333923
0.009093; 0.207458; -0.260376
0.009116; 0.501282; -0.131470
0.009138; 0.688416; 0.026123
0.009161; 0.729065; 0.179138
0.009184; 0.612610; 0.292297
0.009206; 0.360901; 0.340698
0.009229; 0.031250; 0.316040
0.009252; -0.302795; 0.226562
0.009274; -0.574829; 0.088379
0.009297; -0.721008; -0.071106
0.009320; -0.710510; -0.218933
0.009342; -0.543396; -0.317444
0.009365; -0.255798; -0.343811
0.009388; 0.084595; -0.294617
0.009410; 0.406128; -0.182129
0.009433; 0.635071; -0.032532
0.009456; 0.733398; 0.126404
0.009478; 0.672302; 0.257751
0.009501; 0.463501; 0.331421
0.009524; 0.156433; 0.333252
0.009546; -0.184509; 0.265991
0.009569; -0.488037; 0.143127
0.009592; -0.685852; -0.012329
0.009615; -0.734497; -0.169434
0.009637; -0.622192; -0.289429
0.009660; -0.370911; -0.343445
0.009683; -0.038635; -0.320129
0.009705; 0.294556; -0.229004
0.009728; 0.564270; -0.090149
0.009751; 0.715820; 0.070190
0.009773; 0.710449; 0.215027
0.009796; 0.554504; 0.312988
0.009819; 0.275757; 0.341492
0.009841; -0.063293; 0.297852
0.009864; -0.387390; 0.192505
0.009887; -0.628906; 0.045898
0.009909; -0.733765; -0.114075
0.009932; -0.681458; -0.252441
0.009955; -0.475891; -0.332642
0.009977; -0.165649; -0.337646
0.010000; 0.177063; -0.269165
0.010023; 0.479858; -0.144104
0.010045; 0.677490; 0.011902
0.010068; 0.731262; 0.166016
0.010091; 0.626953; 0.284363
0.010113; 0.386108; 0.339050
0.010136; 0.061035; 0.321350
0.010159; -0.275818; 0.236694
0.010181; -0.555420; 0.102356
0.010204; -0.715942; -0.056763
0.010227; -0.721008; -0.207214
0.010249; -0.566406; -0.311584
0.010272; -0.285339; -0.344543
0.010295; 0.052795; -0.301697
0.010317; 0.377991; -0.195129
0.010340; 0.620056; -0.046753
0.010363; 0.729919; 0.113281
0.010385; 0.682495; 0.247559
0.010408; 0.486816; 0.327148
0.010431; 0.186340; 0.336426
0.010454; -0.157288; 0.274231
0.010476; -0.467102; 0.155579
0.010499; -0.676147; 0.001831
0.010522; -0.739685; -0.155884
0.010544; -0.640991; -0.281006
0.010567; -0.400635; -0.341736
0.010590; -0.073486; -0.325806
0.010612; 0.263611; -0.239929
0.010635; 0.541321; -0.104004
0.010658; 0.704895; 0.055176
0.010680; 0.716431; 0.203430
0.010703; 0.574524; 0.306335
0.010726; 0.304871; 0.341980
0.010748; -0.032104; 0.304138
0.010771; -0.362366; 0.203552
0.010794; -0.614624; 0.060181
0.010816; -0.733154; -0.099976
0.010839; -0.693970; -0.240967
0.010862; -0.500793; -0.328369
0.010884; -0.196594; -0.340088
0.010907; 0.146912; -0.277893
0.010930; 0.454041; -0.157410
0.010952; 0.663452; -0.003113
0.010975; 0.732544; 0.153687
0.010998; 0.643921; 0.275879
0.011020; 0.412781; 0.337158
0.011043; 0.094116; 0.326233
0.011066; -0.247192; 0.246826
0.011088; -0.534424; 0.116455
0.011111; -0.707520; -0.042419
0.011134; -0.727722; -0.194824
0.011156; -0.587402; -0.304626
0.011179; -0.315186; -0.345215
0.011202; 0.022156; -0.308411
0.011224; 0.349854; -0.206482
0.011247; 0.602966; -0.060913
0.011270; 0.724548; 0.098755
0.011293; 0.692444; 0.237488
0.011315; 0.507446; 0.323059
0.011338; 0.213379; 0.338440
0.011361; -0.126892; 0.282837
0.011383; -0.442627; 0.167786
0.011406; -0.662842; 0.016846
0.011429; -0.741089; -0.142639
0.011451; -0.657654; -0.271912
0.011474; -0.428345; -0.339172
0.011497; -0.106567; -0.330383
0.011519; 0.234436; -0.249390
0.011542; 0.520264; -0.117798
0.011565; 0.694214; 0.040710
0.011587; 0.720642; 0.192017
0.011610; 0.590637; 0.299622
0.011633; 0.328491; 0.341248
0.011655; -0.004211; 0.309937
0.011678; -0.334900; 0.215393
0.011701; -0.597168; 0.074707
0.011723; -0.731262; -0.086304
0.011746; -0.705383; -0.230591
0.011769; -0.524353; -0.323242
0.011791; -0.230042; -0.343079
0.011814; 0.112793; -0.286865
0.011837; 0.426697; -0.170349
0.011859; 0.646484; -0.018066
0.011882; 0.730713; 0.140137
0.011905; 0.654480; 0.266968
0.011927; 0.435791; 0.333923
0.011950; 0.123108; 0.330200
0.011973; -0.220459; 0.256104
0.011995; -0.515076; 0.129333
0.012018; -0.700134; -0.027771
0.012041; -0.734802; -0.182312
0.012063; -0.606201; -0.296936
0.012086; -0.345154; -0.344482
0.012109; -0.010803; -0.314636
0.012132; 0.321716; -0.217957
0.012154; 0.582153; -0.075745
0.012177; 0.719360; 0.084167
0.012200; 0.701111; 0.226501
0.012222; 0.530884; 0.317810
0.012245; 0.244507; 0.340332
0.012268; -0.096313; 0.290710
0.012290; -0.415771; 0.180237
0.012313; -0.648682; 0.031372
0.012336; -0.739746; -0.128113
0.012358; -0.670593; -0.262146
0.012381; -0.454041; -0.336304
0.012404; -0.136475; -0.334656
0.012426; 0.205017; -0.259705
0.012449; 0.498718; -0.131226
0.012472; 0.685913; 0.026245
0.012494; 0.725281; 0.178894
0.012517; 0.608643; 0.292236
0.012540; 0.356934; 0.340637
0.012562; 0.027710; 0.316467
0.012585; -0.308167; 0.226624
0.012608; -0.578674; 0.088745
0.012630; -0.726318; -0.071167
0.012653; -0.714966; -0.218933
0.012676; -0.547302; -0.317566
0.012698; -0.259766; -0.344116
0.012721; 0.081787; -0.294495
0.012744; 0.400635; -0.182800
0.012766; 0.631958; -0.032410
0.012789; 0.728455; 0.126221
0.012812; 0.668152; 0.257263
0.012834; 0.461243; 0.331238
0.012857; 0.152222; 0.333191
0.012880; -0.189148; 0.266052
0.012902; -0.491882; 0.143250
0.012925; -0.691345; -0.012573
0.012948; -0.740967; -0.169556
0.012971; -0.626465; -0.289612
0.012993; -0.374634; -0.343018
0.013016; -0.044128; -0.320740
0.013039; 0.292236; -0.229065
0.013061; 0.563171; -0.089355
0.013084; 0.712585; 0.070435
0.013107; 0.707642; 0.215332
0.013129; 0.551086; 0.312561
0.013152; 0.272156; 0.340942
0.013175; -0.067871; 0.296814
0.013197; -0.391418; 0.192139
0.013220; -0.634216; 0.045105
0.013243; -0.740295; -0.115112
0.013265; -0.683777; -0.252136
0.013288; -0.479492; -0.332947
0.013311; -0.169678; -0.338440
0.013333; 0.174622; -0.269531
0.013356; 0.474426; -0.145203
0.013379; 0.672058; 0.010315
0.013401; 0.727051; 0.164978
0.013424; 0.623108; 0.283020
0.013447; 0.385071; 0.338440
0.013469; 0.059265; 0.320129
0.013492; -0.277954; 0.236084
0.013515; -0.557556; 0.101440
0.013537; -0.719299; -0.058472
0.013560; -0.722229; -0.208252
0.013583; -0.567810; -0.312744
0.013605; -0.287354; -0.345947
0.013628; 0.050476; -0.303711
0.013651; 0.375122; -0.196350
0.013673; 0.616638; -0.048645
0.013696; 0.727295; 0.110840
0.013719; 0.682129; 0.246460
0.013741; 0.484863; 0.325317
0.013764; 0.183594; 0.334473
0.013787; -0.159302; 0.272339
0.013810; -0.467224; 0.153687
0.013832; -0.673950; 0.000732
0.013855; -0.739868; -0.157898
0.013878; -0.641479; -0.282593
0.013900; -0.401001; -0.343262
0.013923; -0.075317; -0.328125
0.013946; 0.263611; -0.241943
0.013968; 0.542908; -0.105530
0.013991; 0.704773; 0.053040
0.014014; 0.717468; 0.201294
0.014036; 0.572815; 0.304016
0.014059; 0.302002; 0.338806
0.014082; -0.033081; 0.302063
0.014104; -0.362732; 0.201843
0.014127; -0.615417; 0.058289
0.014150; -0.734131; -0.102600
0.014172; -0.694641; -0.243713
0.014195; -0.500854; -0.330261
0.014218; -0.197937; -0.342346
0.014240; 0.143433; -0.280396
0.014263; 0.452393; -0.159180
0.014286; 0.661499; -0.005066
0.014308; 0.729797; 0.150879
0.014331; 0.641724; 0.274231
0.014354; 0.411926; 0.335266
0.014376; 0.091125; 0.323547
0.014399; -0.248718; 0.244690
0.014422; -0.535828; 0.114258
0.014444; -0.708374; -0.044189
0.014467; -0.728333; -0.196594
0.014490; -0.587952; -0.306335
0.014512; -0.317017; -0.346741
0.014535; 0.019043; -0.310242
0.014558; 0.348267; -0.208557
0.014580; 0.601746; -0.063232
