Time [s];Amplitude;Amplitude;
0.000000; -0.006104; 0.319763
0.000023; 0.317322; 0.235474
0.000045; 0.571655; 0.102234
0.000068; 0.702148; -0.056152
0.000091; 0.680359; -0.205627
0.000113; 0.513245; -0.309570
0.000136; 0.231567; -0.343384
0.000159; -0.101746; -0.300537
0.000181; -0.411865; -0.194214
0.000204; -0.635132; -0.047363
0.000227; -0.719788; 0.111816
0.000249; -0.648987; 0.246094
0.000272; -0.435730; 0.325928
0.000295; -0.127441; 0.334656
0.000317; 0.204773; 0.272461
0.000340; 0.490784; 0.154541
0.000363; 0.668762; 0.001587
0.000385; 0.705139; -0.155396
0.000408; 0.589294; -0.279419
0.000431; 0.342773; -0.340576
0.000454; 0.021362; -0.325012
0.000476; -0.305908; -0.239075
0.000499; -0.568604; -0.103699
0.000522; -0.707581; 0.054565
0.000544; -0.693726; 0.201904
0.000567; -0.528320; 0.303833
0.000590; -0.248291; 0.339233
0.000612; 0.083801; 0.302124
0.000635; 0.395569; 0.202209
0.000658; 0.619629; 0.059937
0.000680; 0.710510; -0.100037
0.000703; 0.646729; -0.240784
0.000726; 0.443665; -0.327393
0.000748; 0.142456; -0.339050
0.000771; -0.191528; -0.277405
0.000794; -0.484314; -0.157593
0.000816; -0.674805; -0.003235
0.000839; -0.718506; 0.152161
0.000862; -0.606323; 0.273926
0.000884; -0.360535; 0.334717
0.000907; -0.036987; 0.323914
0.000930; 0.289307; 0.245239
0.000952; 0.552979; 0.116211
0.000975; 0.694763; -0.041626
0.000998; 0.686340; -0.194092
0.001020; 0.531921; -0.303223
0.001043; 0.258301; -0.344177
0.001066; -0.070190; -0.307495
0.001088; -0.386963; -0.206116
0.001111; -0.620850; -0.061523
0.001134; -0.720337; 0.097351
0.001156; -0.664734; 0.235107
0.001179; -0.462036; 0.320435
0.001202; -0.160645; 0.336060
0.001224; 0.174011; 0.280701
0.001247; 0.468140; 0.166931
0.001270; 0.658447; 0.016235
0.001293; 0.708069; -0.142822
0.001315; 0.603577; -0.270935
0.001338; 0.369080; -0.338318
0.001361; 0.050171; -0.330139
0.001383; -0.279968; -0.250427
0.001406; -0.549927; -0.118286
0.001429; -0.704407; 0.039062
0.001451; -0.701782; 0.188782
0.001474; -0.550110; 0.297058
0.001497; -0.276855; 0.338440
0.001519; 0.053284; 0.307495
0.001542; 0.367737; 0.212341
0.001565; 0.602722; 0.072449
0.001587; 0.706909; -0.086975
0.001610; 0.658691; -0.231323
0.001633; 0.466675; -0.323364
0.001655; 0.171997; -0.342651
0.001678; -0.162720; -0.287659
0.001701; -0.461487; -0.171265
0.001723; -0.663940; -0.019775
0.001746; -0.719604; 0.137268
0.001769; -0.622192; 0.263428
0.001791; -0.386963; 0.331116
0.001814; -0.068420; 0.326233
0.001837; 0.260193; 0.252808
0.001859; 0.531738; 0.126770
0.001882; 0.686340; -0.030029
0.001905; 0.694580; -0.183716
0.001927; 0.550842; -0.297791
0.001950; 0.288330; -0.344849
0.001973; -0.039246; -0.315491
0.001995; -0.360046; -0.218994
0.002018; -0.604309; -0.077881
0.002041; -0.717712; 0.081787
0.002063; -0.674744; 0.222839
0.002086; -0.484680; 0.313843
0.002109; -0.189148; 0.335999
0.002132; 0.145447; 0.286865
0.002154; 0.444946; 0.177856
0.002177; 0.646301; 0.028870
0.002200; 0.710632; -0.130005
0.002222; 0.619446; -0.263367
0.002245; 0.396545; -0.336792
0.002268; 0.083374; -0.334839
0.002290; -0.249512; -0.261475
0.002313; -0.528870; -0.133484
0.002336; -0.693237; 0.023743
0.002358; -0.706970; 0.175415
0.002381; -0.567322; 0.288330
0.002404; -0.304932; 0.336365
0.002426; 0.022888; 0.312195
0.002449; 0.343384; 0.222534
0.002472; 0.587585; 0.085632
0.002494; 0.706238; -0.073486
0.002517; 0.670593; -0.220398
0.002540; 0.491394; -0.318115
0.002562; 0.203796; -0.344421
0.002585; -0.130005; -0.295227
0.002608; -0.435608; -0.184021
0.002630; -0.647766; -0.034302
0.002653; -0.720093; 0.123535
0.002676; -0.635437; 0.254150
0.002698; -0.410645; 0.327576
0.002721; -0.097961; 0.329590
0.002744; 0.232178; 0.261780
0.002766; 0.512146; 0.140076
0.002789; 0.679993; -0.014465
0.002812; 0.701660; -0.169983
0.002834; 0.570374; -0.290283
0.002857; 0.316284; -0.343750
0.002880; -0.008057; -0.320984
0.002902; -0.334473; -0.230469
0.002925; -0.586670; -0.091064
0.002948; -0.712708; 0.067383
0.002971; -0.685181; 0.211731
0.002993; -0.507385; 0.308411
0.003016; -0.217834; 0.337463
0.003039; 0.117126; 0.294861
0.003061; 0.421265; 0.189941
0.003084; 0.634583; 0.043518
0.003107; 0.711060; -0.116089
0.003129; 0.636108; -0.252075
0.003152; 0.421936; -0.332642
0.003175; 0.114136; -0.337524
0.003197; -0.219360; -0.269470
0.003220; -0.506348; -0.145508
0.003243; -0.684692; 0.010071
0.003265; -0.713440; 0.164246
0.003288; -0.586792; 0.281738
0.003311; -0.333191; 0.336365
0.003333; -0.007141; 0.318420
0.003356; 0.317078; 0.234497
0.003379; 0.568604; 0.100586
0.003401; 0.701538; -0.057617
0.003424; 0.681152; -0.207092
0.003447; 0.513367; -0.310303
0.003469; 0.233887; -0.343567
0.003492; -0.100647; -0.301086
0.003515; -0.412292; -0.194946
0.003537; -0.636047; -0.047852
0.003560; -0.720459; 0.111267
0.003583; -0.650085; 0.245483
0.003605; -0.436890; 0.324890
0.003628; -0.130249; 0.333435
0.003651; 0.204529; 0.272766
0.003673; 0.490784; 0.154724
0.003696; 0.669250; 0.001587
0.003719; 0.705017; -0.155334
0.003741; 0.587341; -0.279541
0.003764; 0.344177; -0.339783
0.003787; 0.022827; -0.323792
0.003810; -0.305786; -0.238708
0.003832; -0.569519; -0.103577
0.003855; -0.708252; 0.055542
0.003878; -0.694397; 0.202881
0.003900; -0.529236; 0.304810
0.003923; -0.248474; 0.340271
0.003946; 0.083984; 0.303040
0.003968; 0.395752; 0.203857
0.003991; 0.618286; 0.060669
0.004014; 0.710144; -0.099243
0.004036; 0.648437; -0.239319
0.004059; 0.445679; -0.325195
0.004082; 0.143738; -0.338074
0.004104; -0.190796; -0.276794
0.004127; -0.484619; -0.156494
0.004150; -0.673950; -0.002747
0.004172; -0.717773; 0.152893
0.004195; -0.605530; 0.274719
0.004218; -0.362122; 0.335266
0.004240; -0.036926; 0.324463
0.004263; 0.289307; 0.245667
0.004286; 0.549622; 0.115479
0.004308; 0.693909; -0.041809
0.004331; 0.685974; -0.193665
0.004354; 0.531433; -0.302856
0.004376; 0.259277; -0.343323
0.004399; -0.071228; -0.306946
0.004422; -0.386658; -0.205566
0.004444; -0.621094; -0.060730
0.004467; -0.721436; 0.098022
0.004490; -0.663940; 0.236694
0.004512; -0.462708; 0.321594
0.004535; -0.159729; 0.337158
0.004558; 0.173157; 0.281616
0.004580; 0.466064; 0.167603
0.004603; 0.657532; 0.016785
0.004626; 0.706055; -0.141602
0.004649; 0.601807; -0.270081
0.004671; 0.367371; -0.337524
0.004694; 0.049927; -0.328430
0.004717; -0.279968; -0.248718
0.004739; -0.550903; -0.117371
0.004762; -0.703186; 0.040649
0.004785; -0.702148; 0.190674
0.004807; -0.550049; 0.297974
0.004830; -0.277893; 0.339905
0.004853; 0.053772; 0.309326
0.004875; 0.368225; 0.214661
0.004898; 0.603394; 0.073853
0.004921; 0.708435; -0.085144
0.004943; 0.659729; -0.228882
0.004966; 0.467163; -0.321533
0.004989; 0.171021; -0.341187
0.005011; -0.161255; -0.285217
0.005034; -0.460876; -0.169556
0.005057; -0.663818; -0.018005
0.005079; -0.719788; 0.139526
0.005102; -0.621460; 0.265381
0.005125; -0.387451; 0.333008
0.005147; -0.068481; 0.328247
0.005170; 0.260986; 0.254456
0.005193; 0.532715; 0.128418
0.005215; 0.687744; -0.027588
0.005238; 0.696411; -0.180908
0.005261; 0.551880; -0.295715
0.005283; 0.288574; -0.343018
0.005306; -0.037598; -0.313416
0.005329; -0.360596; -0.217773
0.005351; -0.602051; -0.075500
0.005374; -0.715332; 0.083923
0.005397; -0.673584; 0.225342
0.005420; -0.484619; 0.315857
0.005442; -0.188904; 0.337708
0.005465; 0.145081; 0.288635
0.005488; 0.443909; 0.179565
0.005510; 0.648560; 0.031006
0.005533; 0.710937; -0.128174
0.005556; 0.621033; -0.260620
0.005578; 0.395874; -0.334595
0.005601; 0.082703; -0.332886
0.005624; -0.247742; -0.259033
0.005646; -0.528625; -0.131165
0.005669; -0.692200; 0.026062
0.005692; -0.707275; 0.178162
0.005714; -0.568726; 0.290039
0.005737; -0.304565; 0.338501
0.005760; 0.023193; 0.314087
0.005782; 0.344543; 0.224487
0.005805; 0.588379; 0.087585
0.005828; 0.704895; -0.071594
0.005850; 0.670898; -0.217834
0.005873; 0.490845; -0.316223
0.005896; 0.202942; -0.343079
0.005918; -0.130066; -0.293579
0.005941; -0.436218; -0.182983
0.005964; -0.648743; -0.033203
0.005986; -0.720459; 0.125000
0.006009; -0.633972; 0.255981
0.006032; -0.411865; 0.328918
0.006054; -0.097595; 0.331299
0.006077; 0.234314; 0.264099
0.006100; 0.513123; 0.141602
0.006122; 0.681213; -0.012878
0.006145; 0.701843; -0.168823
0.006168; 0.571838; -0.288330
0.006190; 0.318176; -0.341980
0.006213; -0.006836; -0.319763
0.006236; -0.331238; -0.228943
0.006259; -0.583740; -0.089661
0.006281; -0.711365; 0.069214
0.006304; -0.681519; 0.214417
0.006327; -0.505554; 0.310059
0.006349; -0.217102; 0.338928
0.006372; 0.116089; 0.296021
0.006395; 0.422668; 0.191284
0.006417; 0.636353; 0.045532
0.006440; 0.712158; -0.114624
0.006463; 0.635925; -0.251160
0.006485; 0.421021; -0.331543
0.006508; 0.114868; -0.336243
0.006531; -0.219055; -0.268311
0.006553; -0.505920; -0.144714
0.006576; -0.682129; 0.010742
0.006599; -0.711426; 0.164490
0.006621; -0.585999; 0.282288
0.006644; -0.330322; 0.337097
0.006667; -0.005310; 0.319031
0.006689; 0.319885; 0.234985
0.006712; 0.572510; 0.101807
0.006735; 0.702332; -0.057068
0.006757; 0.681641; -0.206482
0.006780; 0.513916; -0.310425
0.006803; 0.233582; -0.343628
0.006825; -0.098389; -0.300842
0.006848; -0.409180; -0.194641
0.006871; -0.633240; -0.047791
0.006893; -0.717651; 0.111328
0.006916; -0.646912; 0.245667
0.006939; -0.433167; 0.325256
0.006961; -0.127197; 0.333984
0.006984; 0.206970; 0.272461
0.007007; 0.493103; 0.154480
0.007029; 0.673340; 0.001221
0.007052; 0.708130; -0.155090
0.007075; 0.590942; -0.279968
0.007098; 0.345581; -0.340942
0.007120; 0.024048; -0.324280
0.007143; -0.303711; -0.239319
0.007166; -0.566772; -0.103943
0.007188; -0.705566; 0.054443
0.007211; -0.691711; 0.201721
0.007234; -0.526245; 0.303772
0.007256; -0.244324; 0.339600
0.007279; 0.087952; 0.302307
0.007302; 0.396851; 0.202332
0.007324; 0.622314; 0.059387
0.007347; 0.709045; -0.101135
0.007370; 0.649780; -0.240845
0.007392; 0.447876; -0.327209
0.007415; 0.145752; -0.338989
0.007438; -0.186646; -0.277710
0.007460; -0.482483; -0.158020
0.007483; -0.672302; -0.004150
0.007506; -0.715210; 0.152100
0.007528; -0.600952; 0.273865
0.007551; -0.357361; 0.334778
0.007574; -0.034790; 0.323975
0.007596; 0.292603; 0.244812
0.007619; 0.554077; 0.114990
0.007642; 0.697632; -0.042786
0.007664; 0.690979; -0.194153
0.007687; 0.535339; -0.303406
0.007710; 0.263184; -0.343994
0.007732; -0.066589; -0.307556
0.007755; -0.382751; -0.206299
0.007778; -0.617310; -0.061646
0.007800; -0.717224; 0.096802
0.007823; -0.658813; 0.235229
0.007846; -0.457581; 0.320679
0.007868; -0.156128; 0.336182
0.007891; 0.177979; 0.280273
0.007914; 0.471313; 0.166626
0.007937; 0.663513; 0.016479
0.007959; 0.712402; -0.142090
0.007982; 0.609070; -0.270996
0.008005; 0.372559; -0.337952
0.008027; 0.055542; -0.329346
0.008050; -0.273621; -0.249756
0.008073; -0.545776; -0.118103
0.008095; -0.697693; 0.040100
0.008118; -0.697388; 0.190063
0.008141; -0.545288; 0.297058
0.008163; -0.273987; 0.338196
0.008186; 0.057495; 0.307983
0.008209; 0.374023; 0.213745
0.008231; 0.607910; 0.073669
0.008254; 0.711731; -0.085937
0.008277; 0.662781; -0.229980
0.008299; 0.471741; -0.321655
0.008322; 0.176147; -0.341614
0.008345; -0.158508; -0.286194
0.008367; -0.457153; -0.170227
0.008390; -0.659058; -0.018860
0.008413; -0.717773; 0.137939
0.008435; -0.617798; 0.264282
0.008458; -0.382019; 0.332031
0.008481; -0.063477; 0.327637
0.008503; 0.264587; 0.253967
0.008526; 0.536743; 0.128357
0.008549; 0.691223; -0.027649
0.008571; 0.697876; -0.182373
0.008594; 0.556641; -0.296570
0.008617; 0.292786; -0.343750
0.008639; -0.035400; -0.314392
0.008662; -0.356201; -0.217834
0.008685; -0.600403; -0.076782
0.008707; -0.713379; 0.082825
0.008730; -0.670959; 0.224731
0.008753; -0.479004; 0.315857
0.008776; -0.185059; 0.337402
0.008798; 0.149048; 0.288391
0.008821; 0.448975; 0.179138
0.008844; 0.649597; 0.030151
0.008866; 0.716003; -0.128723
0.008889; 0.625061; -0.261292
0.008912; 0.401428; -0.334656
0.008934; 0.086792; -0.333313
0.008957; -0.245605; -0.259460
0.008980; -0.524719; -0.131226
0.009002; -0.688843; 0.025024
0.009025; -0.701599; 0.177124
0.009048; -0.563599; 0.289734
0.009070; -0.297913; 0.338257
0.009093; 0.027344; 0.313599
0.009116; 0.349426; 0.224548
0.009138; 0.592529; 0.087341
0.009161; 0.708313; -0.072266
0.009184; 0.675049; -0.218933
0.009206; 0.494568; -0.316895
0.009229; 0.208313; -0.342468
0.009252; -0.124634; -0.293762
0.009274; -0.432617; -0.182983
0.009297; -0.644165; -0.033142
0.009320; -0.714966; 0.125122
0.009342; -0.631775; 0.254761
0.009365; -0.407227; 0.328491
0.009388; -0.093018; 0.330688
0.009410; 0.237549; 0.263428
0.009433; 0.516296; 0.141296
0.009456; 0.683289; -0.013550
0.009478; 0.704224; -0.169128
0.009501; 0.574951; -0.289307
0.009524; 0.320984; -0.342407
0.009546; -0.004333; -0.320190
0.009569; -0.328491; -0.229248
0.009592; -0.581726; -0.090515
0.009615; -0.707397; 0.068481
0.009637; -0.679077; 0.212585
0.009660; -0.501465; 0.308960
0.009683; -0.211609; 0.337891
0.009705; 0.121033; 0.294617
0.009728; 0.427551; 0.190063
0.009751; 0.641968; 0.044067
0.009773; 0.717285; -0.116089
0.009796; 0.640747; -0.252686
0.009819; 0.428040; -0.332397
0.009841; 0.120422; -0.337830
0.009864; -0.212952; -0.270386
0.009887; -0.499451; -0.146362
0.009909; -0.677856; 0.009094
0.009932; -0.705566; 0.163086
0.009955; -0.579407; 0.280762
0.009977; -0.326050; 0.335205
0.010000; 0.000671; 0.317505
0.010023; 0.325256; 0.233643
0.010045; 0.578430; 0.099792
0.010068; 0.707581; -0.058716
0.010091; 0.686462; -0.208435
0.010113; 0.519043; -0.312378
0.010136; 0.241394; -0.345032
0.010159; -0.091736; -0.302551
0.010181; -0.403992; -0.196289
0.010204; -0.628723; -0.049255
0.010227; -0.713989; 0.109619
0.010249; -0.640503; 0.244080
0.010272; -0.428955; 0.323486
0.010295; -0.121887; 0.331909
0.010317; 0.210571; 0.270325
0.010340; 0.496521; 0.152344
0.010363; 0.677795; -0.000183
0.010385; 0.713257; -0.157593
0.010408; 0.595032; -0.282166
0.010431; 0.350891; -0.342285
0.010454; 0.029236; -0.327393
0.010476; -0.298645; -0.242371
0.010499; -0.560242; -0.106201
0.010522; -0.699463; 0.052551
0.010544; -0.686401; 0.199890
0.010567; -0.520081; 0.302063
0.010590; -0.240723; 0.336731
0.010612; 0.092468; 0.300537
0.010635; 0.403809; 0.200684
0.010658; 0.626160; 0.057129
0.010680; 0.717896; -0.102417
0.010703; 0.655823; -0.242676
0.010726; 0.451904; -0.329102
0.010748; 0.152588; -0.341309
0.010771; -0.182861; -0.279358
0.010794; -0.477539; -0.159851
0.010816; -0.666016; -0.005432
0.010839; -0.711975; 0.149414
0.010862; -0.597412; 0.271790
0.010884; -0.351135; 0.333862
0.010907; -0.031067; 0.321716
0.010930; 0.296387; 0.243225
0.010952; 0.558655; 0.113708
0.010975; 0.700562; -0.044495
0.010998; 0.695129; -0.196106
0.011020; 0.540527; -0.305115
0.011043; 0.268921; -0.345032
0.011066; -0.060364; -0.308838
0.011088; -0.379517; -0.208191
0.011111; -0.612122; -0.063171
0.011134; -0.712219; 0.095520
0.011156; -0.656616; 0.233765
0.011179; -0.453369; 0.319031
0.011202; -0.152771; 0.334473
0.011224; 0.182617; 0.279297
0.011247; 0.473694; 0.165161
0.011270; 0.665039; 0.014343
0.011293; 0.716614; -0.143311
0.011315; 0.613586; -0.271606
0.011338; 0.377625; -0.339233
0.011361; 0.058594; -0.330872
0.011383; -0.270203; -0.250671
0.011406; -0.542664; -0.119141
0.011429; -0.694763; 0.038391
0.011451; -0.695007; 0.188721
0.011474; -0.541870; 0.296204
0.011497; -0.268860; 0.338135
0.011519; 0.060608; 0.307312
0.011542; 0.376282; 0.212524
0.011565; 0.610962; 0.072510
0.011587; 0.715027; -0.086731
0.011610; 0.665894; -0.230652
0.011633; 0.475342; -0.322693
0.011655; 0.179138; -0.342468
0.011678; -0.155518; -0.287048
0.011701; -0.454773; -0.170593
0.011723; -0.656555; -0.019226
0.011746; -0.715820; 0.137756
0.011769; -0.615540; 0.263672
0.011791; -0.380310; 0.331299
0.011814; -0.062500; 0.326843
0.011837; 0.269531; 0.253967
0.011859; 0.537842; 0.127441
0.011882; 0.693970; -0.028259
0.011905; 0.702820; -0.181580
0.011927; 0.557251; -0.296814
0.011950; 0.295349; -0.343262
0.011973; -0.033508; -0.314026
0.011995; -0.355042; -0.217834
0.012018; -0.599548; -0.076172
0.012041; -0.713013; 0.083008
0.012063; -0.669495; 0.224670
0.012086; -0.479675; 0.316101
0.012109; -0.183838; 0.338196
0.012132; 0.150452; 0.288147
0.012154; 0.450684; 0.179443
0.012177; 0.650574; 0.030884
0.012200; 0.716187; -0.127502
0.012222; 0.626099; -0.260071
0.012245; 0.400208; -0.333923
0.012268; 0.088867; -0.332581
0.012290; -0.243896; -0.258057
0.012313; -0.523315; -0.129944
0.012336; -0.689087; 0.026672
0.012358; -0.703918; 0.178894
0.012381; -0.564392; 0.291565
0.012404; -0.300598; 0.338989
0.012426; 0.028687; 0.315002
0.012449; 0.347107; 0.225708
0.012472; 0.591125; 0.088135
0.012494; 0.709167; -0.070801
0.012517; 0.674011; -0.217773
0.012540; 0.494507; -0.315857
0.012562; 0.206909; -0.342346
0.012585; -0.126221; -0.292847
0.012608; -0.430725; -0.181824
0.012630; -0.645142; -0.032227
0.012653; -0.716797; 0.125732
0.012676; -0.632080; 0.256409
0.012698; -0.407593; 0.329407
0.012721; -0.093384; 0.331787
0.012744; 0.238586; 0.264587
0.012766; 0.517578; 0.142700
0.012789; 0.684265; -0.012207
0.012812; 0.705933; -0.167419
0.012834; 0.576111; -0.287537
0.012857; 0.322083; -0.341248
0.012880; -0.004517; -0.319214
0.012902; -0.327820; -0.228088
0.012925; -0.582825; -0.089417
0.012948; -0.709229; 0.069275
0.012971; -0.680908; 0.214233
0.012993; -0.503357; 0.310608
0.013016; -0.215027; 0.339294
0.013039; 0.118652; 0.296021
0.013061; 0.425537; 0.191895
0.013084; 0.638000; 0.045532
0.013107; 0.714844; -0.114197
0.013129; 0.638916; -0.250671
0.013152; 0.424683; -0.330566
0.013175; 0.118591; -0.335876
0.013197; -0.215271; -0.267822
0.013220; -0.502441; -0.143433
0.013243; -0.680115; 0.011292
0.013265; -0.710144; 0.165161
0.013288; -0.584656; 0.282471
0.013311; -0.328430; 0.337097
0.013333; -0.003601; 0.319580
0.013356; 0.319763; 0.235168
0.013379; 0.574158; 0.101929
0.013401; 0.703613; -0.056641
0.013424; 0.683838; -0.205933
0.013447; 0.515869; -0.309631
0.013469; 0.234802; -0.343201
0.013492; -0.096741; -0.300293
0.013515; -0.409363; -0.194702
0.013537; -0.632690; -0.047485
0.013560; -0.718445; 0.111755
0.013583; -0.647644; 0.245667
0.013605; -0.433472; 0.325806
0.013628; -0.125183; 0.334351
0.013651; 0.205933; 0.272949
0.013673; 0.493469; 0.154419
0.013696; 0.673767; 0.001892
0.013719; 0.707642; -0.155212
0.013741; 0.594116; -0.279114
0.013764; 0.347046; -0.339966
0.013787; 0.025818; -0.324402
0.013810; -0.303467; -0.239197
0.013832; -0.565308; -0.103882
0.013855; -0.704956; 0.055054
0.013878; -0.690613; 0.202393
0.013900; -0.523804; 0.304810
0.013923; -0.246277; 0.338867
0.013946; 0.086548; 0.301819
0.013968; 0.398743; 0.202759
0.013991; 0.622803; 0.059937
0.014014; 0.712402; -0.099792
0.014036; 0.651489; -0.240173
0.014059; 0.448730; -0.326111
0.014082; 0.145752; -0.338745
0.014104; -0.188599; -0.277283
0.014127; -0.480957; -0.157349
0.014150; -0.669861; -0.002930
0.014172; -0.712708; 0.152588
0.014195; -0.601685; 0.274170
0.014218; -0.357300; 0.334900
0.014240; -0.034607; 0.324036
0.014263; 0.291382; 0.244934
0.014286; 0.556213; 0.115356
0.014308; 0.697449; -0.042236
0.014331; 0.690247; -0.194214
0.014354; 0.536865; -0.302734
0.014376; 0.263245; -0.343628
0.014399; -0.066711; -0.307922
0.014422; -0.384460; -0.206665
0.014444; -0.619507; -0.061646
0.014467; -0.718140; 0.097534
0.014490; -0.659912; 0.235657
0.014512; -0.460144; 0.320801
0.014535; -0.155151; 0.336914
0.014558; 0.176758; 0.281189
0.014580; 0.469482; 0.166809
