Time [s];Amplitude;Amplitude;
0.000000; 0.024414; -0.144104
0.000023; 0.030457; -0.303528
0.000045; 0.031738; -0.419067
0.000068; 0.027344; -0.472778
0.000091; 0.019104; -0.456665
0.000113; 0.008545; -0.372620
0.000136; -0.003174; -0.233276
0.000159; -0.015686; -0.061829
0.000181; -0.025085; 0.117615
0.000204; -0.030029; 0.280212
0.000227; -0.032043; 0.401184
0.000249; -0.029663; 0.464905
0.000272; -0.020813; 0.462585
0.000295; -0.010071; 0.392761
0.000317; 0.000549; 0.264771
0.000340; 0.013733; 0.097534
0.000363; 0.023560; -0.084534
0.000385; 0.029907; -0.254272
0.000408; 0.031128; -0.387207
0.000431; 0.028198; -0.462280
0.000454; 0.022522; -0.469421
0.000476; 0.011597; -0.408142
0.000499; 0.000977; -0.284912
0.000522; -0.011719; -0.121765
0.000544; -0.020813; 0.058716
0.000567; -0.028809; 0.229553
0.000590; -0.031006; 0.366211
0.000612; -0.030334; 0.450745
0.000635; -0.024292; 0.470825
0.000658; -0.013916; 0.423279
0.000680; -0.003723; 0.312561
0.000703; 0.010498; 0.156372
0.000726; 0.018982; -0.024231
0.000748; 0.028076; -0.200989
0.000771; 0.030823; -0.348511
0.000794; 0.029907; -0.444275
0.000816; 0.024475; -0.474792
0.000839; 0.014954; -0.435547
0.000862; 0.003967; -0.331665
0.000884; -0.007629; -0.179504
0.000907; -0.018982; -0.001526
0.000930; -0.026978; 0.175537
0.000952; -0.031494; 0.326538
0.000975; -0.032532; 0.429016
0.000998; -0.025818; 0.472290
0.001020; -0.017883; 0.446838
0.001043; -0.008728; 0.355347
0.001066; 0.005371; 0.212341
0.001088; 0.017456; 0.036743
0.001111; 0.025024; -0.144226
0.001134; 0.029663; -0.304077
0.001156; 0.030457; -0.419434
0.001179; 0.027588; -0.472656
0.001202; 0.020081; -0.456238
0.001224; 0.008240; -0.372803
0.001247; -0.003906; -0.234314
0.001270; -0.015381; -0.061951
0.001293; -0.024109; 0.118347
0.001315; -0.029419; 0.280273
0.001338; -0.031799; 0.401184
0.001361; -0.027771; 0.464722
0.001383; -0.019836; 0.462585
0.001406; -0.009155; 0.392578
0.001429; 0.001099; 0.264160
0.001451; 0.013672; 0.097107
0.001474; 0.024048; -0.084900
0.001497; 0.030823; -0.254028
0.001519; 0.033386; -0.387024
0.001542; 0.030151; -0.462341
0.001565; 0.022095; -0.470093
0.001587; 0.013000; -0.407837
0.001610; 0.002563; -0.285034
0.001633; -0.011169; -0.122070
0.001655; -0.020325; 0.058411
0.001678; -0.028748; 0.229187
0.001701; -0.030273; 0.366211
0.001723; -0.028076; 0.450256
0.001746; -0.021790; 0.470276
0.001769; -0.012268; 0.421936
0.001791; -0.000122; 0.311951
0.001814; 0.012268; 0.154846
0.001837; 0.022644; -0.025391
0.001859; 0.031128; -0.201660
0.001882; 0.033813; -0.349426
0.001905; 0.032898; -0.445862
0.001927; 0.027527; -0.476318
0.001950; 0.019226; -0.437317
0.001973; 0.007446; -0.333862
0.001995; -0.005676; -0.180725
0.002018; -0.015686; -0.003296
0.002041; -0.023560; 0.173767
0.002063; -0.028320; 0.324524
0.002086; -0.028748; 0.427795
0.002109; -0.024841; 0.470154
0.002132; -0.015198; 0.444824
0.002154; -0.003296; 0.354126
0.002177; 0.007874; 0.210510
0.002200; 0.021179; 0.035522
0.002222; 0.028931; -0.146179
0.002245; 0.034668; -0.306152
0.002268; 0.034729; -0.420837
0.002290; 0.030579; -0.474426
0.002313; 0.022278; -0.458496
0.002336; 0.012207; -0.374756
0.002358; 0.000000; -0.236389
0.002381; -0.012634; -0.064087
0.002404; -0.020508; 0.116333
0.002426; -0.026978; 0.278137
0.002449; -0.027405; 0.399414
0.002472; -0.023437; 0.463928
0.002494; -0.016663; 0.460632
0.002517; -0.006042; 0.390564
0.002540; 0.005249; 0.262329
0.002562; 0.015503; 0.094666
0.002585; 0.026184; -0.086609
0.002608; 0.033875; -0.256409
0.002630; 0.035156; -0.388916
0.002653; 0.031677; -0.464539
0.002676; 0.025146; -0.471741
0.002698; 0.016602; -0.409973
0.002721; 0.003906; -0.287048
0.002744; -0.008118; -0.123169
0.002766; -0.018372; 0.056824
0.002789; -0.026306; 0.227600
0.002812; -0.028381; 0.364075
0.002834; -0.027527; 0.448486
0.002857; -0.020142; 0.468933
0.002880; -0.010437; 0.421387
0.002902; 0.000916; 0.311096
0.002925; 0.012085; 0.153320
0.002948; 0.023193; -0.025635
0.002971; 0.030945; -0.202942
0.002993; 0.035339; -0.350098
0.003016; 0.034546; -0.446045
0.003039; 0.029114; -0.476929
0.003061; 0.019287; -0.437378
0.003084; 0.007629; -0.333984
0.003107; -0.003967; -0.180908
0.003129; -0.015503; -0.003540
0.003152; -0.025146; 0.173462
0.003175; -0.028870; 0.324219
0.003197; -0.028442; 0.427979
0.003220; -0.023376; 0.469849
0.003243; -0.013184; 0.444946
0.003265; -0.004028; 0.353943
0.003288; 0.009399; 0.210144
0.003311; 0.019470; 0.035278
0.003333; 0.028931; -0.145569
0.003356; 0.033264; -0.305542
0.003379; 0.035156; -0.420593
0.003401; 0.029236; -0.474060
0.003424; 0.021790; -0.457886
0.003447; 0.010376; -0.374207
0.003469; -0.001038; -0.235779
0.003492; -0.011597; -0.063293
0.003515; -0.022339; 0.116455
0.003537; -0.026794; 0.279175
0.003560; -0.029541; 0.400024
0.003583; -0.025269; 0.463745
0.003605; -0.018921; 0.461365
0.003628; -0.007874; 0.390930
0.003651; 0.002869; 0.263428
0.003673; 0.015076; 0.096069
0.003696; 0.025146; -0.085510
0.003719; 0.033325; -0.255310
0.003741; 0.032715; -0.387878
0.003764; 0.030273; -0.463135
0.003787; 0.025146; -0.470581
0.003810; 0.013916; -0.408264
0.003832; 0.002625; -0.286011
0.003855; -0.009521; -0.122742
0.003878; -0.017883; 0.058289
0.003900; -0.026001; 0.229431
0.003923; -0.031189; 0.365540
0.003946; -0.027771; 0.450317
0.003968; -0.022156; 0.470093
0.003991; -0.013733; 0.422424
0.004014; -0.000977; 0.312378
0.004036; 0.009399; 0.155090
0.004059; 0.022095; -0.024475
0.004082; 0.030518; -0.201111
0.004104; 0.031799; -0.348450
0.004127; 0.034119; -0.444275
0.004150; 0.028015; -0.474670
0.004172; 0.017273; -0.435425
0.004195; 0.005554; -0.331543
0.004218; -0.005554; -0.178345
0.004240; -0.016357; -0.000977
0.004263; -0.026367; 0.175232
0.004286; -0.028931; 0.326660
0.004308; -0.030151; 0.429871
0.004331; -0.026245; 0.472290
0.004354; -0.016479; 0.447327
0.004376; -0.004761; 0.356689
0.004399; 0.005798; 0.212891
0.004422; 0.018188; 0.037048
0.004444; 0.027405; -0.143616
0.004467; 0.031860; -0.303345
0.004490; 0.033691; -0.418274
0.004512; 0.028015; -0.472107
0.004535; 0.020081; -0.456055
0.004558; 0.010010; -0.371948
0.004580; -0.003296; -0.234131
0.004603; -0.013794; -0.061890
0.004626; -0.022949; 0.118469
0.004649; -0.029541; 0.280273
0.004671; -0.030090; 0.401672
0.004694; -0.028198; 0.464966
0.004717; -0.018738; 0.462524
0.004739; -0.009216; 0.392700
0.004762; 0.002686; 0.264343
0.004785; 0.014954; 0.097473
0.004807; 0.024414; -0.084412
0.004830; 0.031494; -0.254456
0.004853; 0.033142; -0.386597
0.004875; 0.030762; -0.461792
0.004898; 0.024658; -0.468689
0.004921; 0.013733; -0.407410
0.004943; 0.001221; -0.285461
0.004966; -0.010620; -0.121765
0.004989; -0.019592; 0.058655
0.005011; -0.027588; 0.230103
0.005034; -0.030823; 0.366455
0.005057; -0.030334; 0.450806
0.005079; -0.022766; 0.470886
0.005102; -0.013489; 0.422607
0.005125; -0.001099; 0.312927
0.005147; 0.010803; 0.156067
0.005170; 0.019714; -0.024048
0.005193; 0.029297; -0.200806
0.005215; 0.030762; -0.348450
0.005238; 0.031372; -0.444214
0.005261; 0.025513; -0.474854
0.005283; 0.015808; -0.435547
0.005306; 0.005432; -0.331360
0.005329; -0.007568; -0.179199
0.005351; -0.018066; -0.001831
0.005374; -0.025574; 0.175293
0.005397; -0.031372; 0.325867
0.005420; -0.032837; 0.429260
0.005442; -0.026367; 0.472046
0.005465; -0.016663; 0.446655
0.005488; -0.005798; 0.355774
0.005510; 0.005615; 0.212036
0.005533; 0.015625; 0.036865
0.005556; 0.026245; -0.143982
0.005578; 0.029541; -0.304321
0.005601; 0.031250; -0.419067
0.005624; 0.027344; -0.472778
0.005646; 0.019470; -0.456604
0.005669; 0.010132; -0.372437
0.005692; -0.004395; -0.234619
0.005714; -0.015991; -0.062195
0.005737; -0.025024; 0.118164
0.005760; -0.029541; 0.279968
0.005782; -0.032349; 0.401428
0.005805; -0.029541; 0.465027
0.005828; -0.022461; 0.462280
0.005850; -0.010925; 0.392212
0.005873; 0.000366; 0.264709
0.005896; 0.012451; 0.097107
0.005918; 0.023437; -0.084778
0.005941; 0.028442; -0.254639
0.005964; 0.030884; -0.387085
0.005986; 0.028931; -0.462280
0.006009; 0.023193; -0.469727
0.006032; 0.011780; -0.407959
0.006054; 0.000671; -0.285828
0.006077; -0.011108; -0.121521
0.006100; -0.023621; 0.058411
0.006122; -0.028503; 0.229492
0.006145; -0.032776; 0.366821
0.006168; -0.030457; 0.450867
0.006190; -0.024170; 0.470703
0.006213; -0.015930; 0.422363
0.006236; -0.003235; 0.312683
0.006259; 0.007202; 0.155640
0.006281; 0.018005; -0.024475
0.006304; 0.026428; -0.201050
0.006327; 0.029419; -0.349243
0.006349; 0.029114; -0.445007
0.006372; 0.025574; -0.475403
0.006395; 0.014099; -0.436584
0.006417; 0.003479; -0.332275
0.006440; -0.009827; -0.179810
0.006463; -0.020752; -0.002014
0.006485; -0.028015; 0.175110
0.006508; -0.032471; 0.325928
0.006531; -0.033020; 0.429016
0.006553; -0.027954; 0.471802
0.006576; -0.019348; 0.446045
0.006599; -0.007812; 0.355347
0.006621; 0.005005; 0.212402
0.006644; 0.014404; 0.036560
0.006667; 0.023987; -0.144592
0.006689; 0.028748; -0.304504
0.006712; 0.029968; -0.419922
0.006735; 0.027405; -0.473145
0.006757; 0.017761; -0.456787
0.006780; 0.007202; -0.373230
0.006803; -0.003845; -0.234497
0.006825; -0.016479; -0.062683
0.006848; -0.025146; 0.118286
0.006871; -0.032593; 0.279907
0.006893; -0.033447; 0.401001
0.006916; -0.029236; 0.465149
0.006939; -0.021912; 0.462341
0.006961; -0.012512; 0.392151
0.006984; -0.000732; 0.264404
0.007007; 0.011902; 0.096802
0.007029; 0.020752; -0.085510
0.007052; 0.028381; -0.254883
0.007075; 0.029724; -0.387146
0.007098; 0.027039; -0.462646
0.007120; 0.020569; -0.470032
0.007143; 0.010193; -0.408142
0.007166; -0.002869; -0.285889
0.007188; -0.013672; -0.121704
0.007211; -0.023499; 0.058350
0.007234; -0.031982; 0.229248
0.007256; -0.033264; 0.366394
0.007279; -0.032715; 0.450500
0.007302; -0.027344; 0.470215
0.007324; -0.019043; 0.422424
0.007347; -0.005493; 0.312195
0.007370; 0.005920; 0.155457
0.007392; 0.016846; -0.024109
0.007415; 0.025208; -0.201294
0.007438; 0.029236; -0.348572
0.007460; 0.028503; -0.444824
0.007483; 0.024414; -0.475281
0.007506; 0.014832; -0.436462
0.007528; 0.002319; -0.332520
0.007551; -0.009094; -0.179932
0.007574; -0.020447; -0.001770
0.007596; -0.026978; 0.175171
0.007619; -0.032837; 0.325623
0.007642; -0.032104; 0.429382
0.007664; -0.028748; 0.471130
0.007687; -0.018982; 0.445801
0.007710; -0.008423; 0.354797
0.007732; 0.004089; 0.211426
0.007755; 0.015930; 0.036316
0.007778; 0.022705; -0.144958
0.007800; 0.029907; -0.304626
0.007823; 0.030457; -0.419373
0.007846; 0.026306; -0.473145
0.007868; 0.017578; -0.457092
0.007891; 0.006104; -0.373779
0.007914; -0.005371; -0.234924
0.007937; -0.015930; -0.062561
0.007959; -0.025757; 0.117554
0.007982; -0.031677; 0.279785
0.008005; -0.033264; 0.401062
0.008027; -0.030640; 0.464722
0.008050; -0.024231; 0.461731
0.008073; -0.013123; 0.392151
0.008095; -0.001160; 0.263855
0.008118; 0.011414; 0.097046
0.008141; 0.021057; -0.085266
0.008163; 0.026855; -0.254944
0.008186; 0.028931; -0.387329
0.008209; 0.027344; -0.462463
0.008231; 0.020752; -0.470093
0.008254; 0.008667; -0.408630
0.008277; -0.001648; -0.285828
0.008299; -0.015442; -0.122620
0.008322; -0.025208; 0.058105
0.008345; -0.031677; 0.229065
0.008367; -0.036377; 0.365723
0.008390; -0.033569; 0.450012
0.008413; -0.026978; 0.470764
0.008435; -0.018250; 0.422546
0.008458; -0.006958; 0.311768
0.008481; 0.007568; 0.155334
0.008503; 0.016968; -0.024780
0.008526; 0.024109; -0.201599
0.008549; 0.028015; -0.348816
0.008571; 0.026367; -0.444946
0.008594; 0.021484; -0.475708
0.008617; 0.014038; -0.436340
0.008639; 0.003357; -0.332092
0.008662; -0.010986; -0.180237
0.008685; -0.021118; -0.002258
0.008707; -0.029114; 0.174744
0.008730; -0.032471; 0.325500
0.008753; -0.033875; 0.429138
0.008776; -0.028687; 0.471130
0.008798; -0.019348; 0.445984
0.008821; -0.007874; 0.355469
0.008844; 0.003662; 0.211914
0.008866; 0.015686; 0.036438
0.008889; 0.023621; -0.144470
0.008912; 0.028931; -0.304810
0.008934; 0.029541; -0.419250
0.008957; 0.026184; -0.473511
0.008980; 0.017517; -0.457153
0.009002; 0.004639; -0.373352
0.009025; -0.004517; -0.234863
0.009048; -0.018372; -0.062439
0.009070; -0.026855; 0.116882
0.009093; -0.032532; 0.279419
0.009116; -0.033630; 0.400452
0.009138; -0.029846; 0.464661
0.009161; -0.024963; 0.461914
0.009184; -0.013367; 0.391479
0.009206; -0.000793; 0.264404
0.009229; 0.010864; 0.096802
0.009252; 0.020142; -0.085449
0.009274; 0.026550; -0.254700
0.009297; 0.030212; -0.387573
0.009320; 0.025330; -0.463379
0.009342; 0.019348; -0.470886
0.009365; 0.008423; -0.408447
0.009388; -0.003174; -0.285828
0.009410; -0.014893; -0.122620
0.009433; -0.025757; 0.057983
0.009456; -0.031494; 0.229065
0.009478; -0.035645; 0.366394
0.009501; -0.032776; 0.451111
0.009524; -0.027100; 0.470215
0.009546; -0.016785; 0.422363
0.009569; -0.005859; 0.312256
0.009592; 0.006226; 0.155396
0.009615; 0.016479; -0.024780
0.009637; 0.024109; -0.201904
0.009660; 0.027771; -0.348511
0.009683; 0.026062; -0.444763
0.009705; 0.020935; -0.475525
0.009728; 0.010742; -0.436096
0.009751; 0.002136; -0.332397
0.009773; -0.011780; -0.180054
0.009796; -0.020569; -0.001648
0.009819; -0.029724; 0.174805
0.009841; -0.034058; 0.325806
0.009864; -0.032593; 0.429260
0.009887; -0.031128; 0.471130
0.009909; -0.022034; 0.445679
0.009932; -0.009888; 0.354980
0.009955; 0.002502; 0.211365
0.009977; 0.015808; 0.036804
0.010000; 0.021362; -0.144775
0.010023; 0.025330; -0.305115
0.010045; 0.026917; -0.420105
0.010068; 0.022827; -0.474060
0.010091; 0.016296; -0.456726
0.010113; 0.003784; -0.374084
0.010136; -0.008667; -0.235535
0.010159; -0.020813; -0.063232
0.010181; -0.028320; 0.116821
0.010204; -0.033997; 0.278870
0.010227; -0.034302; 0.400452
0.010249; -0.031494; 0.463867
0.010272; -0.025635; 0.460815
0.010295; -0.013855; 0.390991
0.010317; -0.002197; 0.262939
0.010340; 0.008911; 0.095398
0.010363; 0.017944; -0.086975
0.010385; 0.024841; -0.256653
0.010408; 0.027222; -0.388855
0.010431; 0.025696; -0.464111
0.010454; 0.019714; -0.471497
0.010476; 0.007996; -0.409790
0.010499; -0.003967; -0.287354
0.010522; -0.015320; -0.123413
0.010544; -0.026489; 0.056152
0.010567; -0.031982; 0.227356
0.010590; -0.035278; 0.364807
0.010612; -0.034729; 0.448975
0.010635; -0.028259; 0.468689
0.010658; -0.018250; 0.420593
0.010680; -0.006470; 0.310791
0.010703; 0.005371; 0.153076
0.010726; 0.016052; -0.026367
0.010748; 0.024292; -0.203003
0.010771; 0.028687; -0.350769
0.010794; 0.027588; -0.446350
0.010816; 0.021545; -0.477112
0.010839; 0.012146; -0.437866
0.010862; 0.001526; -0.333801
0.010884; -0.011658; -0.181519
0.010907; -0.020630; -0.003601
0.010930; -0.030090; 0.172913
0.010952; -0.035156; 0.323730
0.010975; -0.034485; 0.427185
0.010998; -0.029541; 0.469788
0.011020; -0.020874; 0.444580
0.011043; -0.010132; 0.353882
0.011066; 0.002258; 0.209961
0.011088; 0.014221; 0.034912
0.011111; 0.022095; -0.146423
0.011134; 0.026367; -0.306213
0.011156; 0.029236; -0.420532
0.011179; 0.025208; -0.474487
0.011202; 0.016785; -0.458008
0.011224; 0.005859; -0.374451
0.011247; -0.006653; -0.236145
0.011270; -0.018188; -0.063599
0.011293; -0.027771; 0.116394
0.011315; -0.034180; 0.278259
0.011338; -0.035095; 0.399597
0.011361; -0.031311; 0.463562
0.011383; -0.022888; 0.460999
0.011406; -0.013794; 0.390930
0.011429; -0.001221; 0.263184
0.011451; 0.009644; 0.095215
0.011474; 0.021240; -0.086182
0.011497; 0.027283; -0.255981
0.011519; 0.028931; -0.388550
0.011542; 0.026611; -0.463562
0.011565; 0.019897; -0.470825
0.011587; 0.011414; -0.408447
0.011610; -0.004150; -0.286743
0.011633; -0.013794; -0.122803
0.011655; -0.024780; 0.057678
0.011678; -0.031250; 0.228699
0.011701; -0.035034; 0.364990
0.011723; -0.032654; 0.449646
0.011746; -0.025635; 0.469604
0.011769; -0.017822; 0.421509
0.011791; -0.005005; 0.311890
0.011814; 0.007568; 0.154785
0.011837; 0.018982; -0.024841
0.011859; 0.024780; -0.201843
0.011882; 0.028259; -0.348938
0.011905; 0.028259; -0.445251
0.011927; 0.023437; -0.475647
0.011950; 0.014160; -0.436646
0.011973; 0.002869; -0.332581
0.011995; -0.010620; -0.179993
0.012018; -0.023010; -0.002625
0.012041; -0.029785; 0.174805
0.012063; -0.034119; 0.325439
0.012086; -0.033508; 0.429138
0.012109; -0.028137; 0.471252
0.012132; -0.020935; 0.445740
0.012154; -0.009216; 0.355469
0.012177; 0.003540; 0.211670
0.012200; 0.013062; 0.036316
0.012222; 0.023071; -0.144165
0.012245; 0.029053; -0.303894
0.012268; 0.028137; -0.419373
0.012290; 0.025085; -0.472412
0.012313; 0.016479; -0.456055
0.012336; 0.004211; -0.373047
0.012358; -0.006226; -0.234070
0.012381; -0.019043; -0.061890
0.012404; -0.026184; 0.118958
0.012426; -0.033264; 0.280884
0.012449; -0.034912; 0.402039
0.012472; -0.031738; 0.465637
0.012494; -0.024841; 0.462769
0.012517; -0.010498; 0.393921
0.012540; -0.001343; 0.265564
0.012562; 0.009827; 0.098267
0.012585; 0.021118; -0.083496
0.012608; 0.027283; -0.253235
0.012630; 0.028564; -0.385559
0.012653; 0.026855; -0.461121
0.012676; 0.019104; -0.468323
0.012698; 0.008484; -0.406433
0.012721; -0.003662; -0.283813
0.012744; -0.015564; -0.120178
0.012766; -0.025269; 0.059753
0.012789; -0.031067; 0.230957
0.012812; -0.034851; 0.367554
0.012834; -0.031616; 0.452271
0.012857; -0.025940; 0.472290
0.012880; -0.017883; 0.423889
0.012902; -0.005005; 0.314453
0.012925; 0.006470; 0.157166
0.012948; 0.016541; -0.022461
0.012971; 0.023132; -0.199951
0.012993; 0.027832; -0.347473
0.013016; 0.025452; -0.443298
0.013039; 0.020691; -0.473816
0.013061; 0.012207; -0.434448
0.013084; 0.000610; -0.330872
0.013107; -0.011719; -0.178284
0.013129; -0.023315; -0.000671
0.013152; -0.030151; 0.176453
0.013175; -0.036255; 0.326721
0.013197; -0.035278; 0.430298
0.013220; -0.029724; 0.473694
0.013243; -0.022583; 0.447571
0.013265; -0.010986; 0.356689
0.013288; 0.002075; 0.213074
0.013311; 0.011353; 0.037781
0.013333; 0.021912; -0.142639
0.013356; 0.028381; -0.302734
0.013379; 0.027527; -0.418091
0.013401; 0.023682; -0.471863
0.013424; 0.015564; -0.455627
0.013447; 0.005615; -0.372131
0.013469; -0.007568; -0.233398
0.013492; -0.018433; -0.060913
0.013515; -0.026978; 0.119263
0.013537; -0.032898; 0.281372
0.013560; -0.034485; 0.402466
0.013583; -0.032288; 0.465698
0.013605; -0.023437; 0.463318
0.013628; -0.012512; 0.393921
0.013651; -0.000732; 0.265259
0.013673; 0.009705; 0.098328
0.013696; 0.020203; -0.083740
0.013719; 0.026855; -0.253418
0.013741; 0.029114; -0.385986
0.013764; 0.026672; -0.461670
0.013787; 0.020203; -0.468994
0.013810; 0.011292; -0.406921
0.013832; -0.001648; -0.284668
0.013855; -0.014526; -0.121277
0.013878; -0.024353; 0.059631
0.013900; -0.030640; 0.230530
0.013923; -0.033508; 0.367493
0.013946; -0.032593; 0.451294
0.013968; -0.026062; 0.471863
0.013991; -0.016418; 0.423828
0.014014; -0.005005; 0.313965
0.014036; 0.008118; 0.156677
0.014059; 0.019470; -0.022522
0.014082; 0.025635; -0.200012
0.014104; 0.028870; -0.347717
0.014127; 0.028503; -0.443359
0.014150; 0.023437; -0.474121
0.014172; 0.014099; -0.435364
0.014195; 0.002808; -0.331177
0.014218; -0.009338; -0.178467
0.014240; -0.019226; -0.000793
0.014263; -0.028442; 0.176636
0.014286; -0.033875; 0.326233
0.014308; -0.032410; 0.430664
0.014331; -0.028809; 0.472351
0.014354; -0.018982; 0.446960
0.014376; -0.006287; 0.356384
0.014399; 0.004272; 0.212769
0.014422; 0.016296; 0.037903
0.014444; 0.025452; -0.143066
0.014467; 0.028809; -0.303589
0.014490; 0.031494; -0.418274
0.014512; 0.025391; -0.472046
0.014535; 0.017639; -0.455994
0.014558; 0.007996; -0.372070
