Time [s];Amplitude;Amplitude;
0.000000; 0.019348; 0.255188
0.000023; 0.025330; 0.255066
0.000045; 0.029419; 0.254639
0.000068; 0.033569; 0.253784
0.000091; 0.038818; 0.252075
0.000113; 0.043152; 0.250610
0.000136; 0.048218; 0.248230
0.000159; 0.054016; 0.245117
0.000181; 0.056030; 0.242126
0.000204; 0.060791; 0.238708
0.000227; 0.064087; 0.234314
0.000249; 0.069397; 0.230103
0.000272; 0.073486; 0.225403
0.000295; 0.076721; 0.220581
0.000317; 0.081177; 0.215149
0.000340; 0.082642; 0.209229
0.000363; 0.087463; 0.203369
0.000385; 0.090515; 0.196777
0.000408; 0.091980; 0.189575
0.000431; 0.097107; 0.183777
0.000454; 0.099365; 0.176758
0.000476; 0.100830; 0.168762
0.000499; 0.102051; 0.161560
0.000522; 0.105225; 0.153687
0.000544; 0.107727; 0.146729
0.000567; 0.110474; 0.138123
0.000590; 0.111755; 0.129883
0.000612; 0.112366; 0.122192
0.000635; 0.114258; 0.113831
0.000658; 0.113953; 0.104919
0.000680; 0.114502; 0.095398
0.000703; 0.115417; 0.085999
0.000726; 0.116028; 0.076904
0.000748; 0.114807; 0.067017
0.000771; 0.114685; 0.057251
0.000794; 0.114441; 0.046814
0.000816; 0.115051; 0.037109
0.000839; 0.112122; 0.026428
0.000862; 0.112366; 0.015686
0.000884; 0.111267; 0.005859
0.000907; 0.108826; -0.004517
0.000930; 0.109253; -0.014404
0.000952; 0.106262; -0.024780
0.000975; 0.106323; -0.034607
0.000998; 0.103516; -0.044434
0.001020; 0.101807; -0.054443
0.001043; 0.099121; -0.063965
0.001066; 0.096008; -0.074158
0.001088; 0.092834; -0.084229
0.001111; 0.089111; -0.093506
0.001134; 0.085449; -0.103455
0.001156; 0.084106; -0.112549
0.001179; 0.081543; -0.121216
0.001202; 0.076660; -0.130737
0.001224; 0.072327; -0.139404
0.001247; 0.068420; -0.148254
0.001270; 0.064026; -0.156860
0.001293; 0.060547; -0.164917
0.001315; 0.058777; -0.172729
0.001338; 0.052551; -0.180725
0.001361; 0.048035; -0.188232
0.001383; 0.041992; -0.196350
0.001406; 0.037842; -0.202820
0.001429; 0.035767; -0.209412
0.001451; 0.029175; -0.216309
0.001474; 0.025330; -0.221863
0.001497; 0.020081; -0.227905
0.001519; 0.014954; -0.233337
0.001542; 0.009827; -0.238342
0.001565; 0.004395; -0.242920
0.001587; 0.000488; -0.246582
0.001610; -0.003235; -0.249878
0.001633; -0.008057; -0.252808
0.001655; -0.016418; -0.255493
0.001678; -0.020447; -0.258057
0.001701; -0.023376; -0.258911
0.001723; -0.029541; -0.259949
0.001746; -0.034119; -0.260498
0.001769; -0.038818; -0.260010
0.001791; -0.043152; -0.258850
0.001814; -0.047119; -0.257568
0.001837; -0.050964; -0.254944
0.001859; -0.054993; -0.252747
0.001882; -0.061096; -0.250061
0.001905; -0.063171; -0.245605
0.001927; -0.068054; -0.242676
0.001950; -0.072083; -0.238098
0.001973; -0.075623; -0.232971
0.001995; -0.078796; -0.228027
0.002018; -0.081604; -0.222168
0.002041; -0.085571; -0.215881
0.002063; -0.089966; -0.209534
0.002086; -0.092163; -0.202454
0.002109; -0.093933; -0.195801
0.002132; -0.097412; -0.188110
0.002154; -0.099487; -0.180542
0.002177; -0.103760; -0.172302
0.002200; -0.103455; -0.163391
0.002222; -0.104675; -0.155090
0.002245; -0.106567; -0.146484
0.002268; -0.107849; -0.137268
0.002290; -0.108704; -0.128357
0.002313; -0.109375; -0.119507
0.002336; -0.110046; -0.109558
0.002358; -0.109253; -0.099365
0.002381; -0.111023; -0.089111
0.002404; -0.111084; -0.078979
0.002426; -0.111389; -0.067932
0.002449; -0.110840; -0.056641
0.002472; -0.110046; -0.045166
0.002494; -0.108887; -0.033936
0.002517; -0.107788; -0.022034
0.002540; -0.106995; -0.010193
0.002562; -0.105835; 0.001282
0.002585; -0.103638; 0.013306
0.002608; -0.101501; 0.024719
0.002630; -0.099243; 0.036804
0.002653; -0.097900; 0.047852
0.002676; -0.095215; 0.059204
0.002698; -0.092529; 0.070740
0.002721; -0.088623; 0.081604
0.002744; -0.086853; 0.092407
0.002766; -0.085327; 0.103333
0.002789; -0.081299; 0.113953
0.002812; -0.078186; 0.124695
0.002834; -0.074768; 0.134033
0.002857; -0.070557; 0.143311
0.002880; -0.067566; 0.152832
0.002902; -0.061523; 0.161987
0.002925; -0.060425; 0.169800
0.002948; -0.056396; 0.177551
0.002971; -0.052185; 0.185181
0.002993; -0.047363; 0.193237
0.003016; -0.040710; 0.200623
0.003039; -0.038025; 0.206970
0.003061; -0.033142; 0.213013
0.003084; -0.028992; 0.219360
0.003107; -0.022095; 0.225098
0.003129; -0.018311; 0.229553
0.003152; -0.014221; 0.235046
0.003175; -0.009888; 0.238953
0.003197; -0.005188; 0.242859
0.003220; -0.000366; 0.246216
0.003243; 0.003174; 0.248779
0.003265; 0.010132; 0.251343
0.003288; 0.013977; 0.252747
0.003311; 0.018494; 0.254456
0.003333; 0.023437; 0.255127
0.003356; 0.028076; 0.255005
0.003379; 0.031738; 0.255066
0.003401; 0.036987; 0.254028
0.003424; 0.042053; 0.252319
0.003447; 0.046936; 0.250732
0.003469; 0.051086; 0.248169
0.003492; 0.054565; 0.245911
0.003515; 0.058838; 0.242615
0.003537; 0.063049; 0.239197
0.003560; 0.067810; 0.235596
0.003583; 0.072205; 0.231262
0.003605; 0.075012; 0.226074
0.003628; 0.078979; 0.220764
0.003651; 0.082825; 0.215637
0.003673; 0.084717; 0.209839
0.003696; 0.088745; 0.203918
0.003719; 0.091492; 0.196838
0.003741; 0.095459; 0.190186
0.003764; 0.098511; 0.184021
0.003787; 0.098755; 0.176819
0.003810; 0.103333; 0.169373
0.003832; 0.106079; 0.161926
0.003855; 0.109436; 0.154602
0.003878; 0.110840; 0.146729
0.003900; 0.112061; 0.138489
0.003923; 0.113525; 0.130554
0.003946; 0.114197; 0.122070
0.003968; 0.114868; 0.113220
0.003991; 0.116455; 0.104736
0.004014; 0.117432; 0.095825
0.004036; 0.117432; 0.086548
0.004059; 0.117676; 0.076721
0.004082; 0.117065; 0.067200
0.004104; 0.117615; 0.057495
0.004127; 0.116333; 0.047058
0.004150; 0.114380; 0.036865
0.004172; 0.113464; 0.026367
0.004195; 0.113953; 0.016724
0.004218; 0.112793; 0.006531
0.004240; 0.112732; -0.003479
0.004263; 0.110596; -0.013611
0.004286; 0.107361; -0.023987
0.004308; 0.105286; -0.033936
0.004331; 0.103760; -0.043579
0.004354; 0.101379; -0.053345
0.004376; 0.096985; -0.064331
0.004399; 0.096069; -0.073120
0.004422; 0.094116; -0.082336
0.004444; 0.088379; -0.093079
0.004467; 0.086731; -0.101807
0.004490; 0.083313; -0.111145
0.004512; 0.078430; -0.120972
0.004535; 0.073547; -0.130249
0.004558; 0.070007; -0.138794
0.004580; 0.066528; -0.147705
0.004603; 0.062256; -0.156006
0.004626; 0.058350; -0.164062
0.004649; 0.054749; -0.172485
0.004671; 0.051453; -0.179565
0.004694; 0.045410; -0.187500
0.004717; 0.041870; -0.195190
0.004739; 0.037170; -0.201416
0.004762; 0.032593; -0.208740
0.004785; 0.027100; -0.214966
0.004807; 0.020691; -0.221680
0.004830; 0.016846; -0.227234
0.004853; 0.012695; -0.232178
0.004875; 0.006897; -0.237305
0.004898; 0.003296; -0.241028
0.004921; -0.001648; -0.245361
0.004943; -0.006470; -0.249023
0.004966; -0.013489; -0.252502
0.004989; -0.019226; -0.254761
0.005011; -0.020508; -0.256226
0.005034; -0.027161; -0.257568
0.005057; -0.031555; -0.258606
0.005079; -0.036255; -0.259277
0.005102; -0.040039; -0.258667
0.005125; -0.043640; -0.257263
0.005147; -0.048889; -0.256714
0.005170; -0.053467; -0.254211
0.005193; -0.058411; -0.251343
0.005215; -0.064270; -0.249084
0.005238; -0.066223; -0.244995
0.005261; -0.070496; -0.241089
0.005283; -0.074524; -0.236877
0.005306; -0.078003; -0.231750
0.005329; -0.081604; -0.226562
0.005351; -0.084534; -0.220825
0.005374; -0.088867; -0.214600
0.005397; -0.091309; -0.208313
0.005420; -0.094727; -0.201599
0.005442; -0.098389; -0.194824
0.005465; -0.099243; -0.187073
0.005488; -0.102478; -0.179382
0.005510; -0.104126; -0.171204
0.005533; -0.105286; -0.162598
0.005556; -0.106384; -0.153870
0.005578; -0.109985; -0.145996
0.005601; -0.111267; -0.137268
0.005624; -0.112000; -0.127991
0.005646; -0.115112; -0.119690
0.005669; -0.114563; -0.109131
0.005692; -0.113403; -0.098816
0.005714; -0.113464; -0.088623
0.005737; -0.115540; -0.078735
0.005760; -0.113403; -0.067505
0.005782; -0.113892; -0.056396
0.005805; -0.112549; -0.044922
0.005828; -0.110657; -0.033264
0.005850; -0.111389; -0.021545
0.005873; -0.109436; -0.010193
0.005896; -0.106934; 0.001709
0.005918; -0.105713; 0.014038
0.005941; -0.104248; 0.025513
0.005964; -0.102356; 0.037231
0.005986; -0.098999; 0.048950
0.006009; -0.097046; 0.060181
0.006032; -0.094604; 0.071228
0.006054; -0.091736; 0.082642
0.006077; -0.088867; 0.092896
0.006100; -0.086670; 0.103699
0.006122; -0.082397; 0.114197
0.006145; -0.079468; 0.123901
0.006168; -0.076904; 0.133850
0.006190; -0.072632; 0.143860
0.006213; -0.069092; 0.152771
0.006236; -0.065674; 0.161194
0.006259; -0.060974; 0.170044
0.006281; -0.056458; 0.178345
0.006304; -0.053528; 0.185791
0.006327; -0.047729; 0.193848
0.006349; -0.043945; 0.200317
0.006372; -0.039734; 0.206848
0.006395; -0.036133; 0.212646
0.006417; -0.031982; 0.218811
0.006440; -0.028748; 0.224731
0.006463; -0.022766; 0.230225
0.006485; -0.018250; 0.234985
0.006508; -0.013672; 0.238647
0.006531; -0.008728; 0.242798
0.006553; -0.003479; 0.245605
0.006576; 0.002686; 0.248474
0.006599; 0.006165; 0.251221
0.006621; 0.012207; 0.252808
0.006644; 0.015564; 0.254028
0.006667; 0.020813; 0.254700
0.006689; 0.027283; 0.254028
0.006712; 0.032166; 0.253906
0.006735; 0.036133; 0.253296
0.006757; 0.040771; 0.251709
0.006780; 0.044556; 0.249634
0.006803; 0.049744; 0.247559
0.006825; 0.053528; 0.244995
0.006848; 0.058105; 0.241943
0.006871; 0.062195; 0.238037
0.006893; 0.065979; 0.233765
0.006916; 0.071472; 0.230408
0.006939; 0.072937; 0.224609
0.006961; 0.077759; 0.219604
0.006984; 0.080200; 0.214172
0.007007; 0.084778; 0.208679
0.007029; 0.088440; 0.202698
0.007052; 0.091797; 0.196350
0.007075; 0.094910; 0.190063
0.007098; 0.096680; 0.182434
0.007120; 0.100220; 0.175659
0.007143; 0.101379; 0.168335
0.007166; 0.104431; 0.161316
0.007188; 0.107056; 0.153381
0.007211; 0.109070; 0.145874
0.007234; 0.109619; 0.137878
0.007256; 0.109924; 0.129639
0.007279; 0.110962; 0.121521
0.007302; 0.112854; 0.112488
0.007324; 0.114441; 0.104187
0.007347; 0.113525; 0.094727
0.007370; 0.113770; 0.085510
0.007392; 0.113831; 0.076111
0.007415; 0.114014; 0.065979
0.007438; 0.113647; 0.056458
0.007460; 0.115173; 0.046936
0.007483; 0.112854; 0.036377
0.007506; 0.111633; 0.026489
0.007528; 0.110718; 0.016174
0.007551; 0.110107; 0.006104
0.007574; 0.107361; -0.004333
0.007596; 0.105225; -0.014282
0.007619; 0.103882; -0.024231
0.007642; 0.102417; -0.034424
0.007664; 0.100281; -0.044067
0.007687; 0.098450; -0.053528
0.007710; 0.095398; -0.064087
0.007732; 0.092163; -0.073364
0.007755; 0.089844; -0.083069
0.007778; 0.085876; -0.093201
0.007800; 0.084106; -0.101929
0.007823; 0.080017; -0.111938
0.007846; 0.074890; -0.120911
0.007868; 0.072388; -0.130127
0.007891; 0.067688; -0.139282
0.007914; 0.065369; -0.147339
0.007937; 0.060059; -0.155945
0.007959; 0.056702; -0.163940
0.007982; 0.052429; -0.172302
0.008005; 0.046753; -0.180115
0.008027; 0.043335; -0.187439
0.008050; 0.036743; -0.195312
0.008073; 0.032837; -0.201843
0.008095; 0.030579; -0.208862
0.008118; 0.024048; -0.215393
0.008141; 0.019043; -0.222046
0.008163; 0.014648; -0.226868
0.008186; 0.009705; -0.232178
0.008209; 0.006348; -0.236938
0.008231; -0.002319; -0.241882
0.008254; -0.003662; -0.245544
0.008277; -0.011597; -0.249390
0.008299; -0.014893; -0.252380
0.008322; -0.019958; -0.254517
0.008345; -0.025513; -0.256897
0.008367; -0.029663; -0.258057
0.008390; -0.035645; -0.258728
0.008413; -0.039856; -0.258728
0.008435; -0.043335; -0.258667
0.008458; -0.047852; -0.257507
0.008481; -0.054382; -0.256470
0.008503; -0.057068; -0.254272
0.008526; -0.062805; -0.251648
0.008549; -0.066589; -0.248840
0.008571; -0.070557; -0.245239
0.008594; -0.073547; -0.241272
0.008617; -0.078979; -0.236755
0.008639; -0.081421; -0.232422
0.008662; -0.086670; -0.227234
0.008685; -0.088318; -0.220764
0.008707; -0.093933; -0.215271
0.008730; -0.096069; -0.208374
0.008753; -0.097900; -0.201599
0.008776; -0.101196; -0.195068
0.008798; -0.102844; -0.187317
0.008821; -0.107178; -0.179504
0.008844; -0.108276; -0.171143
0.008866; -0.111511; -0.163147
0.008889; -0.113159; -0.154724
0.008912; -0.114563; -0.145752
0.008934; -0.116150; -0.137695
0.008957; -0.116760; -0.128479
0.008980; -0.116028; -0.118774
0.009002; -0.117798; -0.109619
0.009025; -0.117126; -0.099243
0.009048; -0.117737; -0.089172
0.009070; -0.116821; -0.077942
0.009093; -0.117065; -0.067871
0.009116; -0.116699; -0.056274
0.009138; -0.116028; -0.045044
0.009161; -0.116882; -0.034241
0.009184; -0.114624; -0.021545
0.009206; -0.114380; -0.010315
0.009229; -0.111572; 0.001587
0.009252; -0.110352; 0.013000
0.009274; -0.109680; 0.024109
0.009297; -0.107056; 0.036377
0.009320; -0.104065; 0.047913
0.009342; -0.102600; 0.058350
0.009365; -0.100769; 0.069702
0.009388; -0.096130; 0.080872
0.009410; -0.094482; 0.091553
0.009433; -0.090149; 0.102600
0.009456; -0.087891; 0.112854
0.009478; -0.086182; 0.122681
0.009501; -0.080811; 0.132507
0.009524; -0.075378; 0.141663
0.009546; -0.073059; 0.150818
0.009569; -0.068115; 0.160156
0.009592; -0.064941; 0.168213
0.009615; -0.061951; 0.175781
0.009637; -0.057739; 0.183167
0.009660; -0.053528; 0.191345
0.009683; -0.049133; 0.198120
0.009705; -0.044434; 0.204468
0.009728; -0.038635; 0.211365
0.009751; -0.036621; 0.216431
0.009773; -0.029663; 0.222046
0.009796; -0.024231; 0.227539
0.009819; -0.020325; 0.231995
0.009841; -0.015381; 0.236511
0.009864; -0.011963; 0.239990
0.009887; -0.006226; 0.243164
0.009909; -0.001343; 0.245850
0.009932; 0.004333; 0.248474
0.009955; 0.007690; 0.249817
0.009977; 0.012085; 0.250793
0.010000; 0.017883; 0.252075
0.010023; 0.021973; 0.251892
0.010045; 0.026733; 0.251709
0.010068; 0.032776; 0.250793
0.010091; 0.037048; 0.248840
0.010113; 0.042297; 0.247314
0.010136; 0.046204; 0.244690
0.010159; 0.050293; 0.242004
0.010181; 0.055481; 0.238770
0.010204; 0.058289; 0.235168
0.010227; 0.062561; 0.231628
0.010249; 0.066711; 0.227417
0.010272; 0.070862; 0.222351
0.010295; 0.074463; 0.217346
0.010317; 0.078796; 0.212341
0.010340; 0.081421; 0.206116
0.010363; 0.085327; 0.200317
0.010385; 0.088867; 0.194092
0.010408; 0.092712; 0.187561
0.010431; 0.094543; 0.181213
0.010454; 0.096375; 0.173523
0.010476; 0.100159; 0.166504
0.010499; 0.102295; 0.159363
0.010522; 0.104736; 0.151672
0.010544; 0.106079; 0.143799
0.010567; 0.106567; 0.135742
0.010590; 0.109314; 0.127319
0.010612; 0.110840; 0.119446
0.010635; 0.112183; 0.111145
0.010658; 0.112549; 0.102051
0.010680; 0.112305; 0.093018
0.010703; 0.113220; 0.083679
0.010726; 0.113403; 0.074402
0.010748; 0.113159; 0.064331
0.010771; 0.112488; 0.054749
0.010794; 0.113220; 0.044678
0.010816; 0.112915; 0.034180
0.010839; 0.112854; 0.024109
0.010862; 0.109253; 0.013916
0.010884; 0.109863; 0.004150
0.010907; 0.107971; -0.006226
0.010930; 0.106689; -0.015991
0.010952; 0.105225; -0.026123
0.010975; 0.102234; -0.035828
0.010998; 0.101624; -0.045654
0.011020; 0.097656; -0.055969
0.011043; 0.094788; -0.065674
0.011066; 0.092468; -0.075562
0.011088; 0.089417; -0.085266
0.011111; 0.086182; -0.094910
0.011134; 0.083191; -0.104065
0.011156; 0.081177; -0.113525
0.011179; 0.076233; -0.123108
0.011202; 0.071777; -0.131836
0.011224; 0.070251; -0.140320
0.011247; 0.065308; -0.149048
0.011270; 0.059875; -0.157959
0.011293; 0.056519; -0.165894
0.011315; 0.052856; -0.174316
0.011338; 0.048157; -0.181885
0.011361; 0.042969; -0.189209
0.011383; 0.038513; -0.196472
0.011406; 0.034424; -0.202820
0.011429; 0.028381; -0.210693
0.011451; 0.024719; -0.216370
0.011474; 0.020447; -0.222046
0.011497; 0.014343; -0.228027
0.011519; 0.008728; -0.233215
0.011542; 0.004639; -0.238220
0.011565; 0.000061; -0.242554
0.011587; -0.005737; -0.246521
0.011610; -0.009583; -0.249023
0.011633; -0.014404; -0.252136
0.011655; -0.019348; -0.254822
0.011678; -0.024231; -0.256531
0.011701; -0.028137; -0.257568
0.011723; -0.033752; -0.258728
0.011746; -0.039795; -0.259094
0.011769; -0.043945; -0.257996
0.011791; -0.047791; -0.256958
0.011814; -0.053467; -0.256042
0.011837; -0.057556; -0.253662
0.011859; -0.061951; -0.250916
0.011882; -0.066406; -0.247864
0.011905; -0.070618; -0.243958
0.011927; -0.074158; -0.240051
0.011950; -0.076782; -0.236145
0.011973; -0.080933; -0.231445
0.011995; -0.085144; -0.226562
0.012018; -0.088318; -0.220459
0.012041; -0.090515; -0.214111
0.012063; -0.093323; -0.207397
0.012086; -0.096436; -0.200684
0.012109; -0.100647; -0.194580
0.012132; -0.103210; -0.186707
0.012154; -0.104797; -0.178833
0.012177; -0.108215; -0.170471
0.012200; -0.112061; -0.162781
0.012222; -0.110291; -0.153870
0.012245; -0.113403; -0.145630
0.012268; -0.112061; -0.136353
0.012290; -0.114746; -0.127319
0.012313; -0.117859; -0.118652
0.012336; -0.116638; -0.108643
0.012358; -0.118286; -0.098633
0.012381; -0.117554; -0.088501
0.012404; -0.117676; -0.078064
0.012426; -0.118408; -0.066833
0.012449; -0.116150; -0.055603
0.012472; -0.116394; -0.044434
0.012494; -0.116760; -0.033264
0.012517; -0.113770; -0.021057
0.012540; -0.112976; -0.009094
0.012562; -0.111511; 0.002075
0.012585; -0.109497; 0.014343
0.012608; -0.107239; 0.025574
0.012630; -0.107666; 0.036743
0.012653; -0.104126; 0.048828
0.012676; -0.100586; 0.060059
0.012698; -0.098145; 0.071838
0.012721; -0.094177; 0.082581
0.012744; -0.092773; 0.092896
0.012766; -0.088318; 0.104187
0.012789; -0.085876; 0.114624
0.012812; -0.082275; 0.124878
0.012834; -0.079041; 0.134705
0.012857; -0.075073; 0.143921
0.012880; -0.071228; 0.153503
0.012902; -0.066895; 0.162659
0.012925; -0.062073; 0.170227
0.012948; -0.059082; 0.178162
0.012971; -0.053894; 0.186523
0.012993; -0.049866; 0.193787
0.013016; -0.045532; 0.200562
0.013039; -0.040466; 0.207031
0.013061; -0.036865; 0.213501
0.013084; -0.031982; 0.219543
0.013107; -0.026611; 0.224976
0.013129; -0.022095; 0.230225
0.013152; -0.017822; 0.235474
0.013175; -0.012512; 0.239502
0.013197; -0.008423; 0.243347
0.013220; -0.005127; 0.246155
0.013243; 0.001648; 0.248962
0.013265; 0.006287; 0.251221
0.013288; 0.010986; 0.253052
0.013311; 0.014709; 0.254272
0.013333; 0.020081; 0.255005
0.013356; 0.024048; 0.255066
0.013379; 0.030334; 0.254517
0.013401; 0.034241; 0.253784
0.013424; 0.038635; 0.252563
0.013447; 0.044067; 0.250183
0.013469; 0.047668; 0.248047
0.013492; 0.052979; 0.245117
0.013515; 0.056396; 0.241821
0.013537; 0.060730; 0.238525
0.013560; 0.065918; 0.234497
0.013583; 0.068237; 0.229919
0.013605; 0.072205; 0.225525
0.013628; 0.077332; 0.220337
0.013651; 0.080505; 0.214661
0.013673; 0.083130; 0.208679
0.013696; 0.085693; 0.202759
0.013719; 0.090454; 0.196960
0.013741; 0.092957; 0.190125
0.013764; 0.095398; 0.183044
0.013787; 0.098145; 0.176086
0.013810; 0.101807; 0.169434
0.013832; 0.103333; 0.161316
0.013855; 0.104187; 0.153687
0.013878; 0.105652; 0.145813
0.013900; 0.109863; 0.138672
0.013923; 0.110962; 0.130249
0.013946; 0.111755; 0.121521
0.013968; 0.112549; 0.113037
0.013991; 0.113586; 0.104858
0.014014; 0.114990; 0.095947
0.014036; 0.115906; 0.085876
0.014059; 0.115417; 0.076843
0.014082; 0.114929; 0.067139
0.014104; 0.114929; 0.056763
0.014127; 0.114136; 0.047241
0.014150; 0.113281; 0.036926
0.014172; 0.110901; 0.026855
0.014195; 0.110535; 0.016663
0.014218; 0.109558; 0.006287
0.014240; 0.108276; -0.003845
0.014263; 0.106140; -0.014038
0.014286; 0.104858; -0.023926
0.014308; 0.102295; -0.034119
0.014331; 0.099915; -0.043945
0.014354; 0.097229; -0.053955
0.014376; 0.095398; -0.063538
0.014399; 0.093628; -0.072937
0.014422; 0.090210; -0.082764
0.014444; 0.086853; -0.092590
0.014467; 0.082642; -0.102051
0.014490; 0.080933; -0.111755
0.014512; 0.077271; -0.120605
0.014535; 0.073975; -0.130249
0.014558; 0.069397; -0.138916
0.014580; 0.064819; -0.147156
0.014603; 0.061890; -0.155823
