Time [s];Amplitude;Amplitude;
0.000000; -0.038940; 0.157349
0.000023; 0.166321; 0.027100
0.000045; 0.371033; -0.102783
0.000068; 0.561646; -0.227173
0.000091; 0.730469; -0.339050
0.000113; 0.863892; -0.438354
0.000136; 0.952759; -0.520386
0.000159; 0.998108; -0.578613
0.000181; 0.988281; -0.612488
0.000204; 0.931274; -0.618225
0.000227; 0.835999; -0.592468
0.000249; 0.705566; -0.536926
0.000272; 0.547241; -0.458008
0.000295; 0.369202; -0.357239
0.000317; 0.174377; -0.240601
0.000340; -0.029907; -0.113586
0.000363; -0.238281; 0.017334
0.000385; -0.440979; 0.144897
0.000408; -0.627258; 0.265442
0.000431; -0.783752; 0.373169
0.000454; -0.903259; 0.465393
0.000476; -0.976746; 0.539185
0.000499; -1.000061; 0.589539
0.000522; -0.973572; 0.613525
0.000544; -0.902405; 0.608032
0.000567; -0.795166; 0.574158
0.000590; -0.658081; 0.514832
0.000612; -0.498047; 0.431213
0.000635; -0.316956; 0.327637
0.000658; -0.121948; 0.207397
0.000680; 0.082520; 0.078674
0.000703; 0.288086; -0.051819
0.000726; 0.484741; -0.178406
0.000748; 0.666138; -0.296021
0.000771; 0.815552; -0.400330
0.000794; 0.923523; -0.489380
0.000816; 0.986267; -0.558716
0.000839; 0.997498; -0.602417
0.000862; 0.959900; -0.619812
0.000884; 0.877258; -0.606384
0.000907; 0.758606; -0.562622
0.000930; 0.612793; -0.493103
0.000952; 0.442383; -0.400818
0.000975; 0.253357; -0.289124
0.000998; 0.053101; -0.164978
0.001020; -0.153992; -0.035156
0.001043; -0.360168; 0.094666
0.001066; -0.552551; 0.218811
0.001088; -0.724182; 0.331238
0.001111; -0.861389; 0.429626
0.001134; -0.953796; 0.512146
0.001156; -0.996948; 0.572815
0.001179; -0.989807; 0.607178
0.001202; -0.935242; 0.613159
0.001224; -0.840332; 0.591309
0.001247; -0.716064; 0.541443
0.001270; -0.563477; 0.466797
0.001293; -0.391052; 0.371033
0.001315; -0.202332; 0.256775
0.001338; 0.000244; 0.130676
0.001361; 0.207275; 0.000122
0.001383; 0.408447; -0.128479
0.001406; 0.595825; -0.249573
0.001429; 0.758179; -0.359863
0.001451; 0.882996; -0.456360
0.001474; 0.963440; -0.534607
0.001497; 0.994873; -0.588379
0.001519; 0.978394; -0.616333
0.001542; 0.913940; -0.614624
0.001565; 0.810486; -0.582520
0.001587; 0.673950; -0.524170
0.001610; 0.511475; -0.440125
0.001633; 0.329468; -0.335388
0.001655; 0.131287; -0.214783
0.001678; -0.074158; -0.087341
0.001701; -0.282654; 0.043640
0.001723; -0.481262; 0.170166
0.001746; -0.661499; 0.287170
0.001769; -0.815125; 0.392029
0.001791; -0.925354; 0.481506
0.001814; -0.988403; 0.551392
0.001837; -0.997437; 0.597290
0.001859; -0.963135; 0.614258
0.001882; -0.886108; 0.602356
0.001905; -0.771545; 0.563721
0.001927; -0.629517; 0.500000
0.001950; -0.463501; 0.413086
0.001973; -0.280212; 0.304260
0.001995; -0.081787; 0.181396
0.002018; 0.123230; 0.051941
0.002041; 0.327209; -0.077698
0.002063; 0.521851; -0.201965
0.002086; 0.694946; -0.317566
0.002109; 0.836365; -0.420227
0.002132; 0.938965; -0.505920
0.002154; 0.989502; -0.570374
0.002177; 0.990234; -0.608765
0.002200; 0.946533; -0.618713
0.002222; 0.855896; -0.598633
0.002245; 0.731873; -0.550903
0.002268; 0.579224; -0.477112
0.002290; 0.403931; -0.380188
0.002313; 0.211792; -0.264526
0.002336; 0.007935; -0.139526
0.002358; -0.197693; -0.008484
0.002381; -0.402588; 0.119934
0.002404; -0.592896; 0.240662
0.002426; -0.757446; 0.351379
0.002449; -0.886169; 0.447754
0.002472; -0.968445; 0.526367
0.002494; -1.000977; 0.581787
0.002517; -0.983337; 0.610840
0.002540; -0.920715; 0.609924
0.002562; -0.821838; 0.582397
0.002585; -0.689941; 0.528931
0.002608; -0.532471; 0.450317
0.002630; -0.354736; 0.349548
0.002653; -0.163086; 0.231201
0.002676; 0.040833; 0.103638
0.002698; 0.245422; -0.025940
0.002721; 0.445679; -0.152466
0.002744; 0.630920; -0.272278
0.002766; 0.785278; -0.380920
0.002789; 0.904236; -0.473999
0.002812; 0.974670; -0.547791
0.002834; 0.996338; -0.596313
0.002857; 0.968140; -0.617493
0.002880; 0.894409; -0.609436
0.002902; 0.783936; -0.573608
0.002925; 0.642761; -0.509949
0.002948; 0.475220; -0.421692
0.002971; 0.289551; -0.312378
0.002993; 0.088928; -0.189880
0.003016; -0.118164; -0.060486
0.003039; -0.324402; 0.069275
0.003061; -0.519165; 0.193420
0.003084; -0.695374; 0.308960
0.003107; -0.840759; 0.411133
0.003129; -0.941101; 0.497681
0.003152; -0.994568; 0.562683
0.003175; -0.994812; 0.602783
0.003197; -0.949158; 0.613892
0.003220; -0.863831; 0.597107
0.003243; -0.744751; 0.554077
0.003265; -0.597107; 0.485413
0.003288; -0.427917; 0.391785
0.003311; -0.242126; 0.279236
0.003333; -0.041565; 0.154907
0.003356; 0.161926; 0.025146
0.003379; 0.364990; -0.102905
0.003401; 0.558228; -0.225952
0.003424; 0.726868; -0.339722
0.003447; 0.860596; -0.440247
0.003469; 0.950439; -0.522583
0.003492; 0.994385; -0.580688
0.003515; 0.985168; -0.613037
0.003537; 0.928894; -0.617126
0.003560; 0.832397; -0.592957
0.003583; 0.701660; -0.540771
0.003605; 0.545349; -0.461121
0.003628; 0.366333; -0.359436
0.003651; 0.170044; -0.241394
0.003673; -0.033203; -0.114136
0.003696; -0.240967; 0.016357
0.003719; -0.442139; 0.143127
0.003741; -0.627441; 0.261902
0.003764; -0.786560; 0.370544
0.003787; -0.907654; 0.463623
0.003810; -0.978699; 0.538391
0.003832; -0.999634; 0.588379
0.003855; -0.973633; 0.610107
0.003878; -0.904114; 0.605347
0.003900; -0.797302; 0.573120
0.003923; -0.658997; 0.514709
0.003946; -0.497070; 0.430298
0.003968; -0.315857; 0.324524
0.003991; -0.120544; 0.204346
0.004014; 0.080872; 0.075867
0.004036; 0.285583; -0.053040
0.004059; 0.484009; -0.178223
0.004082; 0.661804; -0.297119
0.004104; 0.812927; -0.403748
0.004127; 0.922607; -0.493164
0.004150; 0.984619; -0.561035
0.004172; 0.995911; -0.603943
0.004195; 0.957031; -0.620117
0.004218; 0.878662; -0.606628
0.004240; 0.758484; -0.566162
0.004263; 0.610779; -0.496826
0.004286; 0.440308; -0.402710
0.004308; 0.251038; -0.290100
0.004331; 0.050720; -0.165405
0.004354; -0.156433; -0.036072
0.004376; -0.361877; 0.092407
0.004399; -0.554749; 0.215271
0.004422; -0.727844; 0.328552
0.004444; -0.865234; 0.428345
0.004467; -0.956055; 0.511108
0.004490; -0.998047; 0.571106
0.004512; -0.988770; 0.604980
0.004535; -0.936340; 0.610718
0.004558; -0.843262; 0.589844
0.004580; -0.716980; 0.541443
0.004603; -0.564209; 0.466797
0.004626; -0.390747; 0.368896
0.004649; -0.200012; 0.253662
0.004671; -0.000793; 0.127930
0.004694; 0.203735; -0.000916
0.004717; 0.407349; -0.127747
0.004739; 0.595642; -0.250061
0.004762; 0.757996; -0.362488
0.004785; 0.885376; -0.459290
0.004807; 0.966492; -0.535828
0.004830; 0.996277; -0.589478
0.004853; 0.978638; -0.616028
0.004875; 0.913635; -0.615173
0.004898; 0.811768; -0.585205
0.004921; 0.675354; -0.526733
0.004943; 0.512268; -0.441528
0.004966; 0.330078; -0.336243
0.004989; 0.133057; -0.215759
0.005011; -0.072937; -0.087646
0.005034; -0.279541; 0.041809
0.005057; -0.480408; 0.167603
0.005079; -0.662415; 0.285400
0.005102; -0.813965; 0.391479
0.005125; -0.923279; 0.482178
0.005147; -0.985657; 0.551208
0.005170; -0.998718; 0.594849
0.005193; -0.962646; 0.612366
0.005215; -0.885925; 0.602417
0.005238; -0.771729; 0.565430
0.005261; -0.627014; 0.500916
0.005283; -0.460571; 0.411255
0.005306; -0.278015; 0.302002
0.005329; -0.082458; 0.179810
0.005351; 0.122437; 0.051819
0.005374; 0.327881; -0.075989
0.005397; 0.522339; -0.201843
0.005420; 0.697632; -0.318420
0.005442; 0.839539; -0.421692
0.005465; 0.940186; -0.506592
0.005488; 0.989990; -0.569641
0.005510; 0.991760; -0.607300
0.005533; 0.944153; -0.617737
0.005556; 0.855225; -0.600037
0.005578; 0.731628; -0.552246
0.005601; 0.578857; -0.477173
0.005624; 0.403015; -0.379944
0.005646; 0.212158; -0.263855
0.005669; 0.011536; -0.137634
0.005692; -0.197144; -0.007751
0.005714; -0.400513; 0.119751
0.005737; -0.592285; 0.241028
0.005760; -0.758057; 0.352661
0.005782; -0.885681; 0.449646
0.005805; -0.967102; 0.527893
0.005828; -0.998718; 0.582092
0.005850; -0.981995; 0.610352
0.005873; -0.922058; 0.611511
0.005896; -0.820862; 0.585693
0.005918; -0.688171; 0.531616
0.005941; -0.531677; 0.451416
0.005964; -0.352905; 0.350159
0.005986; -0.161560; 0.232422
0.006009; 0.040161; 0.106506
0.006032; 0.245789; -0.022461
0.006054; 0.444763; -0.150757
0.006077; 0.631775; -0.271179
0.006100; 0.786682; -0.381226
0.006122; 0.906128; -0.473267
0.006145; 0.975342; -0.545715
0.006168; 0.995361; -0.594604
0.006190; 0.969666; -0.615967
0.006213; 0.897217; -0.609314
0.006236; 0.785461; -0.573792
0.006259; 0.643616; -0.509399
0.006281; 0.475098; -0.420471
0.006304; 0.289795; -0.311035
0.006327; 0.091675; -0.188599
0.006349; -0.114624; -0.059753
0.006372; -0.320496; 0.070190
0.006395; -0.520264; 0.193420
0.006417; -0.695862; 0.309448
0.006440; -0.841614; 0.413025
0.006463; -0.941223; 0.499634
0.006485; -0.993774; 0.563599
0.006508; -0.997192; 0.602051
0.006531; -0.951538; 0.614441
0.006553; -0.866089; 0.599304
0.006576; -0.745422; 0.556091
0.006599; -0.596619; 0.486206
0.006621; -0.426758; 0.392151
0.006644; -0.241699; 0.280029
0.006667; -0.042603; 0.156372
0.006689; 0.161011; 0.027527
0.006712; 0.364929; -0.100342
0.006735; 0.558350; -0.224976
0.006757; 0.727905; -0.339661
0.006780; 0.862366; -0.438721
0.006803; 0.951660; -0.520142
0.006825; 0.992798; -0.578796
0.006848; 0.985413; -0.610901
0.006871; 0.930481; -0.615479
0.006893; 0.833740; -0.591675
0.006916; 0.703735; -0.539001
0.006939; 0.545532; -0.458923
0.006961; 0.365601; -0.357056
0.006984; 0.170776; -0.239136
0.007007; -0.031738; -0.111816
0.007029; -0.238403; 0.018188
0.007052; -0.440735; 0.144409
0.007075; -0.628540; 0.264404
0.007098; -0.786011; 0.373596
0.007120; -0.903748; 0.467346
0.007143; -0.977600; 0.540100
0.007166; -1.000427; 0.589050
0.007188; -0.974731; 0.612061
0.007211; -0.904541; 0.608215
0.007234; -0.795166; 0.577271
0.007256; -0.658508; 0.516724
0.007279; -0.495422; 0.431824
0.007302; -0.315125; 0.326538
0.007324; -0.122437; 0.207153
0.007347; 0.081787; 0.080078
0.007370; 0.286560; -0.049255
0.007392; 0.485718; -0.175964
0.007415; 0.667175; -0.294861
0.007438; 0.817078; -0.400757
0.007460; 0.923828; -0.489502
0.007483; 0.984741; -0.557678
0.007506; 0.995178; -0.600952
0.007528; 0.958069; -0.617187
0.007551; 0.878662; -0.604431
0.007574; 0.760742; -0.563538
0.007596; 0.611755; -0.493958
0.007619; 0.440674; -0.400024
0.007642; 0.251953; -0.287231
0.007664; 0.051880; -0.163086
0.007687; -0.154358; -0.033691
0.007710; -0.360413; 0.094238
0.007732; -0.555847; 0.217346
0.007755; -0.726379; 0.331848
0.007778; -0.860291; 0.431885
0.007800; -0.952881; 0.514099
0.007823; -0.995789; 0.572388
0.007846; -0.988892; 0.606323
0.007868; -0.934692; 0.613892
0.007891; -0.843079; 0.593140
0.007914; -0.714722; 0.544128
0.007937; -0.562683; 0.468262
0.007959; -0.387756; 0.371094
0.007982; -0.199219; 0.255920
0.008005; -0.000244; 0.130981
0.008027; 0.206055; 0.001953
0.008050; 0.408203; -0.126282
0.008073; 0.598083; -0.248901
0.008095; 0.762024; -0.360596
0.008118; 0.887878; -0.456177
0.008141; 0.966553; -0.533081
0.008163; 0.997498; -0.586914
0.008186; 0.979736; -0.614319
0.008209; 0.916382; -0.613403
0.008231; 0.814270; -0.583252
0.008254; 0.676270; -0.524719
0.008277; 0.514404; -0.440125
0.008299; 0.331116; -0.334290
0.008322; 0.134033; -0.213989
0.008345; -0.070068; -0.085388
0.008367; -0.277893; 0.044006
0.008390; -0.476624; 0.169373
0.008413; -0.660645; 0.287354
0.008435; -0.810913; 0.393494
0.008458; -0.920166; 0.483826
0.008481; -0.985046; 0.551514
0.008503; -0.996460; 0.595886
0.008526; -0.962524; 0.613953
0.008549; -0.882568; 0.604797
0.008571; -0.769165; 0.566650
0.008594; -0.625244; 0.501404
0.008617; -0.459106; 0.411926
0.008639; -0.276917; 0.303284
0.008662; -0.080261; 0.181946
0.008685; 0.123962; 0.054077
0.008707; 0.329895; -0.075195
0.008730; 0.524353; -0.201050
0.008753; 0.700134; -0.317261
0.008776; 0.841370; -0.420044
0.008798; 0.940857; -0.505310
0.008821; 0.992920; -0.568604
0.008844; 0.994751; -0.606506
0.008866; 0.949158; -0.616943
0.008889; 0.859619; -0.598877
0.008912; 0.735657; -0.551880
0.008934; 0.581177; -0.476990
0.008957; 0.406250; -0.378845
0.008980; 0.215088; -0.263245
0.009002; 0.013794; -0.137451
0.009025; -0.193970; -0.007568
0.009048; -0.399353; 0.119690
0.009070; -0.589478; 0.241089
0.009093; -0.755798; 0.353149
0.009116; -0.882874; 0.449707
0.009138; -0.965637; 0.527588
0.009161; -0.997009; 0.581543
0.009184; -0.980957; 0.609924
0.009206; -0.917969; 0.612183
0.009229; -0.818726; 0.585571
0.009252; -0.684143; 0.531250
0.009274; -0.527222; 0.451172
0.009297; -0.353088; 0.349304
0.009320; -0.159668; 0.232239
0.009342; 0.040588; 0.105408
0.009365; 0.245911; -0.024597
0.009388; 0.449097; -0.151123
0.009410; 0.633728; -0.272522
0.009433; 0.789185; -0.381104
0.009456; 0.906860; -0.473511
0.009478; 0.977783; -0.546204
0.009501; 0.999512; -0.594421
0.009524; 0.971863; -0.616333
0.009546; 0.899475; -0.609436
0.009569; 0.789246; -0.574280
0.009592; 0.646301; -0.509766
0.009615; 0.478394; -0.420776
0.009637; 0.293274; -0.311584
0.009660; 0.094421; -0.188965
0.009683; -0.111084; -0.059448
0.009705; -0.316833; 0.069519
0.009728; -0.515808; 0.193542
0.009751; -0.692444; 0.309692
0.009773; -0.834534; 0.413025
0.009796; -0.938232; 0.499146
0.009819; -0.989990; 0.563171
0.009841; -0.991211; 0.602478
0.009864; -0.946899; 0.614502
0.009887; -0.861572; 0.599487
0.009909; -0.739624; 0.556335
0.009932; -0.591736; 0.485352
0.009955; -0.422424; 0.392090
0.009977; -0.235291; 0.280640
0.010000; -0.038696; 0.156982
0.010023; 0.165405; 0.028015
0.010045; 0.369141; -0.100891
0.010068; 0.563599; -0.224854
0.010091; 0.733337; -0.339111
0.010113; 0.865601; -0.438538
0.010136; 0.956604; -0.519958
0.010159; 0.997681; -0.578186
0.010181; 0.988037; -0.611023
0.010204; 0.932800; -0.616028
0.010227; 0.836853; -0.591492
0.010249; 0.705261; -0.538879
0.010272; 0.546936; -0.459106
0.010295; 0.369690; -0.356873
0.010317; 0.176514; -0.238464
0.010340; -0.028320; -0.111938
0.010363; -0.233704; 0.018188
0.010385; -0.436890; 0.145020
0.010408; -0.622986; 0.264771
0.010431; -0.781006; 0.374084
0.010454; -0.902100; 0.467407
0.010476; -0.973389; 0.540222
0.010499; -0.997986; 0.589478
0.010522; -0.970581; 0.613220
0.010544; -0.900085; 0.609375
0.010567; -0.792542; 0.577209
0.010590; -0.653381; 0.517395
0.010612; -0.491943; 0.432129
0.010635; -0.311401; 0.327026
0.010658; -0.117920; 0.207336
0.010680; 0.084961; 0.079895
0.010703; 0.290894; -0.049072
0.010726; 0.488708; -0.175903
0.010748; 0.669922; -0.294250
0.010771; 0.817322; -0.400513
0.010794; 0.924744; -0.489990
0.010816; 0.987976; -0.557861
0.010839; 0.998169; -0.601562
0.010862; 0.962585; -0.617615
0.010884; 0.880737; -0.604309
0.010907; 0.763916; -0.563049
0.010930; 0.615112; -0.493530
0.010952; 0.442444; -0.400024
0.010975; 0.257263; -0.287292
0.010998; 0.054321; -0.163696
0.011020; -0.150635; -0.033752
0.011043; -0.358154; 0.095215
0.011066; -0.552734; 0.217712
0.011088; -0.722168; 0.331726
0.011111; -0.858521; 0.432007
0.011134; -0.950012; 0.513794
0.011156; -0.993347; 0.573181
0.011179; -0.985291; 0.607117
0.011202; -0.932983; 0.613770
0.011224; -0.839050; 0.593323
0.011247; -0.713928; 0.544128
0.011270; -0.558716; 0.468750
0.011293; -0.384949; 0.371155
0.011315; -0.197510; 0.256470
0.011338; 0.004944; 0.131348
0.011361; 0.208557; 0.001831
0.011383; 0.411682; -0.125610
0.011406; 0.600525; -0.248596
0.011429; 0.762756; -0.360168
0.011451; 0.889587; -0.456116
0.011474; 0.969116; -0.533691
0.011497; 1.001831; -0.586609
0.011519; 0.982483; -0.614441
0.011542; 0.920044; -0.612854
0.011565; 0.815430; -0.583252
0.011587; 0.679810; -0.524719
0.011610; 0.516174; -0.440369
0.011633; 0.333801; -0.334778
0.011655; 0.138062; -0.214050
0.011678; -0.067444; -0.086548
0.011701; -0.273254; 0.043701
0.011723; -0.474548; 0.168701
0.011746; -0.655457; 0.286804
0.011769; -0.807312; 0.392700
0.011791; -0.917297; 0.482727
0.011814; -0.980286; 0.551575
0.011837; -0.993103; 0.595093
0.011859; -0.957764; 0.613525
0.011882; -0.878845; 0.603577
0.011905; -0.765015; 0.564941
0.011927; -0.620728; 0.499939
0.011950; -0.455750; 0.411255
0.011973; -0.273437; 0.302673
0.011995; -0.076843; 0.180786
0.012018; 0.127869; 0.052368
0.012041; 0.332336; -0.077148
0.012063; 0.527405; -0.202209
0.012086; 0.702698; -0.318298
0.012109; 0.846741; -0.421265
0.012132; 0.945435; -0.506531
0.012154; 0.995605; -0.570129
0.012177; 0.997742; -0.608154
0.012200; 0.950256; -0.618469
0.012222; 0.863647; -0.600098
0.012245; 0.738098; -0.553406
0.012268; 0.584473; -0.478455
0.012290; 0.409668; -0.380615
0.012313; 0.218628; -0.265381
0.012336; 0.016235; -0.139099
0.012358; -0.190735; -0.009399
0.012381; -0.395569; 0.118347
0.012404; -0.586243; 0.239746
0.012426; -0.749939; 0.351074
0.012449; -0.878418; 0.447815
0.012472; -0.961548; 0.525940
0.012494; -0.993469; 0.580139
0.012517; -0.975647; 0.608826
0.012540; -0.915527; 0.609497
0.012562; -0.812927; 0.583252
0.012585; -0.679443; 0.528931
0.012608; -0.523804; 0.448547
0.012630; -0.346802; 0.347229
0.012653; -0.156250; 0.229736
0.012676; 0.047241; 0.103638
0.012698; 0.252258; -0.025818
0.012721; 0.453430; -0.152893
0.012744; 0.637207; -0.273743
0.012766; 0.792603; -0.382751
0.012789; 0.910889; -0.475525
0.012812; 0.980103; -0.548340
0.012834; 1.002808; -0.596802
0.012857; 0.976257; -0.617859
0.012880; 0.903015; -0.611328
0.012902; 0.793152; -0.574951
0.012925; 0.651184; -0.511230
0.012948; 0.483398; -0.422424
0.012971; 0.297363; -0.312500
0.012993; 0.098633; -0.190491
0.013016; -0.107849; -0.061157
0.013039; -0.314575; 0.067932
0.013061; -0.510132; 0.192322
0.013084; -0.688232; 0.308044
0.013107; -0.831909; 0.411621
0.013129; -0.932434; 0.497925
0.013152; -0.987244; 0.561462
0.013175; -0.989380; 0.601013
0.013197; -0.945068; 0.612793
0.013220; -0.858643; 0.597717
0.013243; -0.735901; 0.555054
0.013265; -0.588440; 0.484619
0.013288; -0.419434; 0.390747
0.013311; -0.233459; 0.279236
0.013333; -0.035217; 0.156067
0.013356; 0.169495; 0.026306
0.013379; 0.373718; -0.102051
0.013401; 0.566772; -0.225281
0.013424; 0.735107; -0.340210
0.013447; 0.869385; -0.439880
0.013469; 0.960205; -0.520447
0.013492; 1.000183; -0.579407
0.013515; 0.992554; -0.612366
0.013537; 0.937866; -0.616333
0.013560; 0.841187; -0.592407
0.013583; 0.710022; -0.539429
0.013605; 0.551880; -0.459900
0.013628; 0.373108; -0.357727
0.013651; 0.178650; -0.239746
0.013673; -0.025696; -0.112610
0.013696; -0.231262; 0.018127
0.013719; -0.434143; 0.144409
0.013741; -0.620911; 0.264099
0.013764; -0.778687; 0.373474
0.013787; -0.897461; 0.467041
0.013810; -0.970337; 0.539978
0.013832; -0.993225; 0.589355
0.013855; -0.968384; 0.612488
0.013878; -0.898315; 0.608276
0.013900; -0.788452; 0.576538
0.013923; -0.650330; 0.516724
0.013946; -0.488464; 0.432129
0.013968; -0.309204; 0.327209
0.013991; -0.116211; 0.207642
0.014014; 0.087341; 0.079468
0.014036; 0.294250; -0.049500
0.014059; 0.491943; -0.175537
0.014082; 0.670288; -0.294556
0.014104; 0.819641; -0.400330
0.014127; 0.928650; -0.489502
0.014150; 0.989441; -0.557678
0.014172; 1.001465; -0.601257
0.014195; 0.965088; -0.616699
0.014218; 0.881470; -0.603943
0.014240; 0.765259; -0.562195
0.014263; 0.618469; -0.492798
0.014286; 0.445007; -0.399353
0.014308; 0.257263; -0.286560
0.014331; 0.056763; -0.162170
0.014354; -0.149780; -0.032532
0.014376; -0.355347; 0.095581
0.014399; -0.548218; 0.218689
0.014422; -0.721191; 0.331787
0.014444; -0.856750; 0.432129
0.014467; -0.948853; 0.514648
0.014490; -0.990967; 0.573486
0.014512; -0.984802; 0.607300
0.014535; -0.932495; 0.613525
0.014558; -0.835632; 0.593018
0.014580; -0.708679; 0.544434
