Time [s];Amplitude;Amplitude;
0.000000; 0.174438; -0.133850
0.000023; 0.503601; -0.248596
0.000045; 0.776917; -0.337524
0.000068; 0.968628; -0.392029
0.000091; 1.061401; -0.406616
0.000113; 1.049438; -0.375000
0.000136; 0.927795; -0.302185
0.000159; 0.709473; -0.196350
0.000181; 0.411743; -0.069824
0.000204; 0.061951; 0.061218
0.000227; -0.295044; 0.185059
0.000249; -0.625488; 0.289490
0.000272; -0.884888; 0.365356
0.000295; -1.046265; 0.403992
0.000317; -1.094360; 0.400208
0.000340; -1.022278; 0.352844
0.000363; -0.839294; 0.265625
0.000385; -0.566650; 0.150208
0.000408; -0.239319; 0.018860
0.000431; 0.113281; -0.112244
0.000454; 0.450134; -0.230286
0.000476; 0.733032; -0.324890
0.000499; 0.942810; -0.385193
0.000522; 1.054138; -0.406860
0.000544; 1.057922; -0.384155
0.000567; 0.957825; -0.317810
0.000590; 0.753296; -0.216431
0.000612; 0.468750; -0.092773
0.000635; 0.125732; 0.038574
0.000658; -0.233582; 0.164551
0.000680; -0.573181; 0.272400
0.000703; -0.847473; 0.354309
0.000726; -1.026794; 0.400452
0.000748; -1.095154; 0.403564
0.000771; -1.043030; 0.363525
0.000794; -0.878967; 0.282776
0.000816; -0.619934; 0.171143
0.000839; -0.297363; 0.041687
0.000862; 0.054260; -0.090332
0.000884; 0.393982; -0.211670
0.000907; 0.689758; -0.310974
0.000930; 0.912537; -0.377380
0.000952; 1.041260; -0.406372
0.000975; 1.065613; -0.391174
0.000998; 0.981079; -0.332458
0.001020; 0.794617; -0.236572
0.001043; 0.521851; -0.115540
0.001066; 0.187988; 0.015259
0.001088; -0.172424; 0.142822
0.001111; -0.516907; 0.255432
0.001134; -0.802429; 0.342041
0.001156; -1.002991; 0.393982
0.001179; -1.091003; 0.405823
0.001202; -1.060059; 0.372925
0.001224; -0.912598; 0.299072
0.001247; -0.669922; 0.191467
0.001270; -0.355042; 0.063599
0.001293; -0.007507; -0.069031
0.001315; 0.338074; -0.192688
0.001338; 0.646301; -0.295898
0.001361; 0.881287; -0.369568
0.001383; 1.028992; -0.405396
0.001406; 1.071167; -0.398437
0.001429; 1.006775; -0.346863
0.001451; 0.835388; -0.257019
0.001474; 0.576477; -0.139221
0.001497; 0.250427; -0.008545
0.001519; -0.109619; 0.120605
0.001542; -0.457092; 0.236267
0.001565; -0.757629; 0.327942
0.001587; -0.973206; 0.387146
0.001610; -1.081238; 0.405640
0.001633; -1.070435; 0.381287
0.001655; -0.946350; 0.313110
0.001678; -0.718628; 0.210571
0.001701; -0.412354; 0.086487
0.001723; -0.067444; -0.046936
0.001746; 0.280945; -0.173645
0.001769; 0.596741; -0.281128
0.001791; 0.847656; -0.360596
0.001814; 1.010559; -0.403503
0.001837; 1.071777; -0.403748
0.001859; 1.025574; -0.359741
0.001882; 0.872864; -0.275696
0.001905; 0.627319; -0.161621
0.001927; 0.312256; -0.032288
0.001950; -0.044250; 0.097778
0.001973; -0.398376; 0.217285
0.001995; -0.710693; 0.313721
0.002018; -0.942383; 0.378784
0.002041; -1.070984; 0.405396
0.002063; -1.082764; 0.388062
0.002086; -0.974243; 0.328186
0.002109; -0.762329; 0.231201
0.002132; -0.470154; 0.108826
0.002154; -0.129150; -0.024292
0.002177; 0.222229; -0.152222
0.002200; 0.544983; -0.264221
0.002222; 0.810913; -0.348816
0.002245; 0.988708; -0.398926
0.002268; 1.069275; -0.407104
0.002290; 1.041931; -0.370178
0.002313; 0.907410; -0.292419
0.002336; 0.677673; -0.182556
0.002358; 0.370911; -0.055054
0.002381; 0.018494; 0.075806
0.002404; -0.338989; 0.197510
0.002426; -0.660522; 0.299133
0.002449; -0.909546; 0.370605
0.002472; -1.056885; 0.404358
0.002494; -1.089417; 0.394836
0.002517; -1.000854; 0.341553
0.002540; -0.806519; 0.250183
0.002562; -0.525452; 0.131287
0.002585; -0.188965; -0.000671
0.002608; 0.162048; -0.130493
0.002630; 0.493896; -0.245911
0.002653; 0.769592; -0.336182
0.002676; 0.963806; -0.392517
0.002698; 1.061829; -0.408569
0.002721; 1.054199; -0.379211
0.002744; 0.937439; -0.308228
0.002766; 0.722534; -0.203125
0.002789; 0.428284; -0.077209
0.002812; 0.080444; 0.054016
0.002834; -0.278259; 0.178040
0.002857; -0.609924; 0.283508
0.002880; -0.873535; 0.361145
0.002902; -1.038940; 0.401550
0.002925; -1.091736; 0.400391
0.002948; -1.024414; 0.354309
0.002971; -0.847595; 0.268494
0.002993; -0.580017; 0.153687
0.003016; -0.253296; 0.022278
0.003039; 0.099426; -0.108765
0.003061; 0.437317; -0.227417
0.003084; 0.723328; -0.323242
0.003107; 0.935852; -0.385437
0.003129; 1.051636; -0.408813
0.003152; 1.061035; -0.387756
0.003175; 0.963745; -0.323120
0.003197; 0.766968; -0.222290
0.003220; 0.482910; -0.099915
0.003243; 0.142090; 0.031189
0.003265; -0.217468; 0.158264
0.003288; -0.557678; 0.267212
0.003311; -0.834534; 0.350708
0.003333; -1.019592; 0.397827
0.003356; -1.091492; 0.403809
0.003379; -1.046021; 0.365479
0.003401; -0.885925; 0.286865
0.003424; -0.632751; 0.175171
0.003447; -0.312195; 0.046997
0.003469; 0.037720; -0.085510
0.003492; 0.379456; -0.207642
0.003515; 0.679932; -0.306763
0.003537; 0.906067; -0.376038
0.003560; 1.037781; -0.406189
0.003583; 1.067017; -0.393250
0.003605; 0.987915; -0.336060
0.003628; 0.806396; -0.241150
0.003651; 0.538025; -0.120789
0.003673; 0.204956; 0.010254
0.003696; -0.155884; 0.138367
0.003719; -0.502869; 0.251221
0.003741; -0.792725; 0.339722
0.003764; -0.997070; 0.393433
0.003787; -1.088562; 0.407593
0.003810; -1.062561; 0.377380
0.003832; -0.923340; 0.304138
0.003855; -0.682983; 0.197998
0.003878; -0.372498; 0.070740
0.003900; -0.024414; -0.061829
0.003923; 0.321350; -0.186401
0.003946; 0.631531; -0.290771
0.003968; 0.872009; -0.366455
0.003991; 1.022400; -0.403931
0.004014; 1.070862; -0.398132
0.004036; 1.009827; -0.348633
0.004059; 0.847717; -0.259583
0.004082; 0.588928; -0.142944
0.004104; 0.265869; -0.012756
0.004127; -0.091370; 0.116821
0.004150; -0.445312; 0.233215
0.004172; -0.746155; 0.326111
0.004195; -0.968140; 0.386658
0.004218; -1.080750; 0.407959
0.004240; -1.076355; 0.384888
0.004263; -0.955566; 0.318726
0.004286; -0.730591; 0.217957
0.004308; -0.428711; 0.093628
0.004331; -0.084656; -0.039673
0.004354; 0.264709; -0.165710
0.004376; 0.583130; -0.274963
0.004399; 0.835999; -0.355835
0.004422; 1.005249; -0.400513
0.004444; 1.069763; -0.402954
0.004467; 1.029907; -0.360168
0.004490; 0.881836; -0.277710
0.004512; 0.639771; -0.165100
0.004535; 0.326233; -0.036255
0.004558; -0.029236; 0.094727
0.004580; -0.386963; 0.213623
0.004603; -0.700500; 0.312134
0.004626; -0.936340; 0.378906
0.004649; -1.070984; 0.407043
0.004671; -1.086914; 0.391968
0.004694; -0.986267; 0.333130
0.004717; -0.777161; 0.237488
0.004739; -0.486206; 0.115906
0.004762; -0.148499; -0.016602
0.004785; 0.203979; -0.145264
0.004807; 0.530945; -0.258179
0.004830; 0.796936; -0.344727
0.004853; 0.980835; -0.395935
0.004875; 1.064880; -0.406189
0.004898; 1.043152; -0.370728
0.004921; 0.913269; -0.294617
0.004943; 0.687012; -0.185913
0.004966; 0.382935; -0.059265
0.004989; 0.030945; 0.071777
0.005011; -0.326233; 0.194397
0.005034; -0.651733; 0.296509
0.005057; -0.904236; 0.369751
0.005079; -1.056396; 0.405151
0.005102; -1.093018; 0.397217
0.005125; -1.010437; 0.346191
0.005147; -0.820557; 0.255859
0.005170; -0.541565; 0.137939
0.005193; -0.208679; 0.006836
0.005215; 0.143433; -0.123962
0.005238; 0.475708; -0.240479
0.005261; 0.756592; -0.331482
0.005283; 0.955078; -0.389771
0.005306; 1.056519; -0.407776
0.005329; 1.053162; -0.380981
0.005351; 0.941284; -0.311035
0.005374; 0.730774; -0.207336
0.005397; 0.438904; -0.082703
0.005420; 0.093811; 0.049194
0.005442; -0.265137; 0.173889
0.005465; -0.598328; 0.280823
0.005488; -0.865967; 0.359314
0.005510; -1.036377; 0.401855
0.005533; -1.093933; 0.401978
0.005556; -1.033447; 0.357910
0.005578; -0.859741; 0.274170
0.005601; -0.594482; 0.160217
0.005624; -0.268188; 0.029907
0.005646; 0.083313; -0.101562
0.005669; 0.422302; -0.221130
0.005692; 0.713196; -0.317871
0.005714; 0.929199; -0.382202
0.005737; 1.046875; -0.407654
0.005760; 1.060364; -0.388672
0.005782; 0.969177; -0.325562
0.005805; 0.774109; -0.227295
0.005828; 0.494324; -0.104919
0.005850; 0.155640; 0.026367
0.005873; -0.204834; 0.153015
0.005896; -0.546021; 0.263367
0.005918; -0.827332; 0.347534
0.005941; -1.015259; 0.397156
0.005964; -1.093567; 0.404907
0.005986; -1.052856; 0.368713
0.006009; -0.896545; 0.291138
0.006032; -0.646729; 0.181213
0.006054; -0.328430; 0.052429
0.006077; 0.021362; -0.079590
0.006100; 0.364990; -0.202148
0.006122; 0.667114; -0.303406
0.006145; 0.895752; -0.374146
0.006168; 1.033447; -0.406616
0.006190; 1.068237; -0.394714
0.006213; 0.993103; -0.339539
0.006236; 0.815796; -0.246338
0.006259; 0.547607; -0.127441
0.006281; 0.215210; 0.002930
0.006304; -0.142883; 0.131653
0.006327; -0.490784; 0.245911
0.006349; -0.783508; 0.335632
0.006372; -0.991577; 0.391052
0.006395; -1.089233; 0.406555
0.006417; -1.067871; 0.378174
0.006440; -0.933105; 0.306885
0.006463; -0.696533; 0.201538
0.006485; -0.387024; 0.075439
0.006508; -0.040344; -0.057251
0.006531; 0.306274; -0.182434
0.006553; 0.618286; -0.288025
0.006576; 0.861267; -0.364319
0.006599; 1.016846; -0.403503
0.006621; 1.067627; -0.400269
0.006644; 1.014160; -0.351746
0.006667; 0.853210; -0.265015
0.006689; 0.597351; -0.149475
0.006712; 0.276123; -0.019592
0.006735; -0.080261; 0.110352
0.006757; -0.432495; 0.227844
0.006780; -0.737671; 0.322205
0.006803; -0.963196; 0.384338
0.006825; -1.082397; 0.406799
0.006848; -1.082336; 0.386047
0.006871; -0.967163; 0.322021
0.006893; -0.745789; 0.221985
0.006916; -0.445007; 0.098572
0.006939; -0.100342; -0.034424
0.006961; 0.250000; -0.161743
0.006984; 0.569031; -0.271362
0.007007; 0.825745; -0.353455
0.007029; 0.995728; -0.400146
0.007052; 1.067078; -0.403931
0.007075; 1.031250; -0.363953
0.007098; 0.888245; -0.282654
0.007120; 0.650330; -0.170837
0.007143; 0.337646; -0.042725
0.007166; -0.015198; 0.088623
0.007188; -0.372009; 0.208557
0.007211; -0.688599; 0.307861
0.007234; -0.929321; 0.376160
0.007256; -1.069885; 0.405457
0.007279; -1.089294; 0.392883
0.007302; -0.992065; 0.336121
0.007324; -0.788635; 0.241577
0.007347; -0.499756; 0.121338
0.007370; -0.162720; -0.011475
0.007392; 0.188904; -0.140259
0.007415; 0.515137; -0.254272
0.007438; 0.786011; -0.341736
0.007460; 0.974548; -0.394409
0.007483; 1.062256; -0.406738
0.007506; 1.042908; -0.374451
0.007528; 0.918396; -0.299438
0.007551; 0.695740; -0.192200
0.007574; 0.395386; -0.065247
0.007596; 0.046753; 0.065979
0.007619; -0.312866; 0.188965
0.007642; -0.638550; 0.292908
0.007664; -0.897278; 0.366516
0.007687; -1.054749; 0.403564
0.007710; -1.094910; 0.398193
0.007732; -1.020142; 0.348389
0.007755; -0.833191; 0.259644
0.007778; -0.557373; 0.142944
0.007800; -0.226562; 0.011475
0.007823; 0.126587; -0.118774
0.007846; 0.460815; -0.236206
0.007868; 0.743408; -0.328796
0.007891; 0.946960; -0.388184
0.007914; 1.053406; -0.408142
0.007937; 1.052368; -0.383362
0.007959; 0.947632; -0.315430
0.007982; 0.740723; -0.212463
0.008005; 0.450806; -0.088562
0.008027; 0.107605; 0.043152
0.008050; -0.252686; 0.168640
0.008073; -0.588806; 0.275879
0.008095; -0.858093; 0.355896
0.008118; -1.035461; 0.400208
0.008141; -1.098572; 0.401794
0.008163; -1.040833; 0.359741
0.008186; -0.872986; 0.277832
0.008209; -0.610535; 0.164734
0.008231; -0.286438; 0.034973
0.008254; 0.065308; -0.096741
0.008277; 0.405334; -0.217346
0.008299; 0.699341; -0.314697
0.008322; 0.915894; -0.381409
0.008345; 1.042664; -0.408325
0.008367; 1.061340; -0.391174
0.008390; 0.973755; -0.330383
0.008413; 0.783569; -0.232605
0.008435; 0.505981; -0.110962
0.008458; 0.171021; 0.020569
0.008481; -0.191162; 0.147583
0.008503; -0.532471; 0.259216
0.008526; -0.819153; 0.343933
0.008549; -1.012390; 0.395020
0.008571; -1.096008; 0.404419
0.008594; -1.059814; 0.369751
0.008617; -0.908142; 0.294617
0.008639; -0.661804; 0.185791
0.008662; -0.345215; 0.057495
0.008685; 0.003357; -0.074524
0.008707; 0.347717; -0.197998
0.008730; 0.651550; -0.300232
0.008753; 0.884949; -0.372070
0.008776; 1.026489; -0.406799
0.008798; 1.065552; -0.396912
0.008821; 0.995483; -0.343750
0.008844; 0.822510; -0.251953
0.008866; 0.558228; -0.133850
0.008889; 0.229065; -0.003296
0.008912; -0.129028; 0.125916
0.008934; -0.477356; 0.240967
0.008957; -0.774658; 0.331360
0.008980; -0.987061; 0.388916
0.009002; -1.090271; 0.405945
0.009025; -1.075073; 0.378906
0.009048; -0.942322; 0.310303
0.009070; -0.711060; 0.206604
0.009093; -0.403748; 0.080994
0.009116; -0.058044; -0.052246
0.009138; 0.288513; -0.177673
0.009161; 0.602783; -0.284302
0.009184; 0.850159; -0.361816
0.009206; 1.007751; -0.403625
0.009229; 1.065247; -0.402161
0.009252; 1.015381; -0.355652
0.009274; 0.858398; -0.270386
0.009297; 0.609619; -0.155334
0.009320; 0.290039; -0.025452
0.009342; -0.064636; 0.104858
0.009365; -0.420410; 0.222351
0.009388; -0.729370; 0.317932
0.009410; -0.957581; 0.381531
0.009433; -1.080872; 0.405701
0.009456; -1.086731; 0.387329
0.009478; -0.975098; 0.324646
0.009501; -0.758118; 0.225952
0.009524; -0.462280; 0.103455
0.009546; -0.120972; -0.029968
0.009569; 0.230408; -0.157227
0.009592; 0.551270; -0.268799
0.009615; 0.812683; -0.351929
0.009637; 0.989807; -0.399963
0.009660; 1.061218; -0.406860
0.009683; 1.031677; -0.368042
0.009705; 0.893555; -0.288391
0.009728; 0.657104; -0.178040
0.009751; 0.349487; -0.050293
0.009773; -0.003601; 0.080933
0.009796; -0.361084; 0.201965
0.009819; -0.680420; 0.301575
0.009841; -0.924500; 0.371460
0.009864; -1.067505; 0.403687
0.009887; -1.093689; 0.392395
0.009909; -1.000305; 0.337341
0.009932; -0.802795; 0.243835
0.009955; -0.518311; 0.124512
0.009977; -0.180725; -0.007935
0.010000; 0.170349; -0.137756
0.010023; 0.499084; -0.252441
0.010045; 0.772461; -0.341064
0.010068; 0.965271; -0.395874
0.010091; 1.058167; -0.410034
0.010113; 1.045288; -0.379517
0.010136; 0.925720; -0.305969
0.010159; 0.705383; -0.200134
0.010181; 0.407837; -0.073853
0.010204; 0.060303; 0.058105
0.010227; -0.299011; 0.180847
0.010249; -0.627441; 0.286011
0.010272; -0.886169; 0.362000
0.010295; -1.048950; 0.400391
0.010317; -1.097839; 0.396851
0.010340; -1.024658; 0.349365
0.010363; -0.842285; 0.262146
0.010385; -0.570801; 0.145752
0.010408; -0.241455; 0.014465
0.010431; 0.111389; -0.116089
0.010454; 0.447998; -0.234070
0.010476; 0.730835; -0.328247
0.010499; 0.938416; -0.389587
0.010522; 1.050415; -0.411011
0.010544; 1.056091; -0.388123
0.010567; 0.954529; -0.321838
0.010590; 0.751587; -0.220154
0.010612; 0.465698; -0.096558
0.010635; 0.123352; 0.035034
0.010658; -0.237061; 0.160767
0.010680; -0.574768; 0.269775
0.010703; -0.849304; 0.350586
0.010726; -1.030273; 0.396301
0.010748; -1.096069; 0.401306
0.010771; -1.043762; 0.361328
0.010794; -0.880981; 0.280090
0.010816; -0.623535; 0.167969
0.010839; -0.301392; 0.038391
0.010862; 0.051086; -0.093384
0.010884; 0.391724; -0.214661
0.010907; 0.686584; -0.314087
0.010930; 0.910950; -0.380981
0.010952; 1.038208; -0.410461
0.010975; 1.062561; -0.394958
0.010998; 0.979004; -0.335937
0.011020; 0.792358; -0.239746
0.011043; 0.519775; -0.118958
0.011066; 0.183838; 0.012268
0.011088; -0.173889; 0.140259
0.011111; -0.518982; 0.252441
0.011134; -0.808105; 0.339600
0.011156; -1.005493; 0.391846
0.011179; -1.092590; 0.403931
0.011202; -1.063171; 0.371094
0.011224; -0.916748; 0.296814
0.011247; -0.673767; 0.189819
0.011270; -0.360962; 0.062073
0.011293; -0.013428; -0.070862
0.011315; 0.333984; -0.194519
0.011338; 0.641541; -0.297852
0.011361; 0.876709; -0.371338
0.011383; 1.023743; -0.407654
0.011406; 1.066345; -0.400146
0.011429; 1.002441; -0.348145
0.011451; 0.834167; -0.257507
0.011474; 0.572876; -0.140442
0.011497; 0.246338; -0.009766
0.011519; -0.113586; 0.119385
0.011542; -0.462463; 0.235291
0.011565; -0.761963; 0.327576
0.011587; -0.978455; 0.386780
0.011610; -1.087524; 0.405396
0.011633; -1.077271; 0.380737
0.011655; -0.950378; 0.313538
0.011678; -0.723877; 0.210876
0.011701; -0.421204; 0.085571
0.011723; -0.073303; -0.047058
0.011746; 0.275818; -0.173401
0.011769; 0.591003; -0.280762
0.011791; 0.840942; -0.360291
0.011814; 1.003601; -0.403320
0.011837; 1.064697; -0.403687
0.011859; 1.020325; -0.359497
0.011882; 0.868652; -0.274597
0.011905; 0.622620; -0.161194
0.011927; 0.305420; -0.031860
0.011950; -0.051758; 0.098572
0.011973; -0.404114; 0.218140
0.011995; -0.716125; 0.314941
0.012018; -0.950012; 0.380066
0.012041; -1.077393; 0.406982
0.012063; -1.086792; 0.390137
0.012086; -0.982056; 0.329407
0.012109; -0.769348; 0.232544
0.012132; -0.477234; 0.110107
0.012154; -0.137878; -0.022888
0.012177; 0.214478; -0.151062
0.012200; 0.539307; -0.262756
0.012222; 0.804321; -0.347717
0.012245; 0.983948; -0.397827
0.012268; 1.062744; -0.405945
0.012290; 1.034851; -0.369812
0.012313; 0.902344; -0.291504
0.012336; 0.671936; -0.181458
0.012358; 0.365723; -0.053833
0.012381; 0.012207; 0.076904
0.012404; -0.346924; 0.198547
0.012426; -0.668945; 0.299683
0.012449; -0.916809; 0.371399
0.012472; -1.063965; 0.405762
0.012494; -1.096313; 0.396118
0.012517; -1.011047; 0.342224
0.012540; -0.816162; 0.250549
0.012562; -0.532898; 0.132202
0.012585; -0.198547; 0.000122
0.012608; 0.153198; -0.130371
0.012630; 0.485352; -0.245605
0.012653; 0.761414; -0.335754
0.012676; 0.957092; -0.391846
0.012698; 1.055542; -0.408020
0.012721; 1.046448; -0.379517
0.012744; 0.931091; -0.307373
0.012766; 0.715454; -0.202759
0.012789; 0.421326; -0.076904
0.012812; 0.074158; 0.054138
0.012834; -0.285400; 0.178711
0.012857; -0.616760; 0.284485
0.012880; -0.880920; 0.361633
0.012902; -1.046204; 0.402588
0.012925; -1.098938; 0.400146
0.012948; -1.033813; 0.354004
0.012971; -0.855408; 0.268982
0.012993; -0.587524; 0.153870
0.013016; -0.258423; 0.023376
0.013039; 0.094604; -0.108032
0.013061; 0.429993; -0.227722
0.013084; 0.719788; -0.322510
0.013107; 0.930481; -0.385437
0.013129; 1.046814; -0.408752
0.013152; 1.059082; -0.387268
0.013175; 0.960083; -0.323059
0.013197; 0.763000; -0.222534
0.013220; 0.478882; -0.099670
0.013243; 0.138306; 0.031677
0.013265; -0.221375; 0.158142
0.013288; -0.561401; 0.267700
0.013311; -0.838074; 0.350403
0.013333; -1.025085; 0.398193
0.013356; -1.098206; 0.403809
0.013379; -1.052185; 0.365356
0.013401; -0.892395; 0.286194
0.013424; -0.635986; 0.175232
0.013447; -0.316467; 0.046204
0.013469; 0.033997; -0.086121
0.013492; 0.376770; -0.207825
0.013515; 0.674561; -0.308044
0.013537; 0.901733; -0.376953
0.013560; 1.035278; -0.407471
0.013583; 1.062988; -0.394836
0.013605; 0.985779; -0.336914
0.013628; 0.803040; -0.242249
0.013651; 0.532410; -0.122559
0.013673; 0.200012; 0.008667
0.013696; -0.160400; 0.136841
0.013719; -0.506958; 0.249817
0.013741; -0.798279; 0.337769
0.013764; -1.001343; 0.392029
0.013787; -1.093567; 0.405884
0.013810; -1.067383; 0.375000
0.013832; -0.927185; 0.302063
0.013855; -0.686035; 0.196533
0.013878; -0.376099; 0.069519
0.013900; -0.027283; -0.063660
0.013923; 0.319031; -0.188110
0.013946; 0.629028; -0.292664
0.013968; 0.869202; -0.367432
0.013991; 1.018921; -0.405457
0.014014; 1.066589; -0.399963
0.014036; 1.008179; -0.349426
0.014059; 0.842773; -0.261475
0.014082; 0.586060; -0.144409
0.014104; 0.262451; -0.014038
0.014127; -0.094788; 0.115662
0.014150; -0.448059; 0.231873
0.014172; -0.751892; 0.324768
0.014195; -0.971680; 0.385803
0.014218; -1.083801; 0.406372
0.014240; -1.078552; 0.383362
0.014263; -0.958252; 0.317566
0.014286; -0.734070; 0.216553
0.014308; -0.432495; 0.092041
0.014331; -0.086426; -0.040344
0.014354; 0.261780; -0.167419
0.014376; 0.577271; -0.276978
0.014399; 0.831604; -0.357361
0.014422; 1.001587; -0.401550
0.014444; 1.065735; -0.404297
0.014467; 1.024597; -0.361755
0.014490; 0.878784; -0.278381
0.014512; 0.635437; -0.165710
0.014535; 0.321045; -0.037231
0.014558; -0.033081; 0.093628
0.014580; -0.388062; 0.213318
