Time [s];Amplitude;Amplitude;
0.000000; 0.026611; -0.350281
0.000023; 0.030457; -0.185547
0.000045; 0.030640; -0.015564
0.000068; 0.032654; 0.156128
0.000091; 0.032532; 0.322327
0.000113; 0.031128; 0.474548
0.000136; 0.028748; 0.605774
0.000159; 0.023560; 0.708435
0.000181; 0.020325; 0.780701
0.000204; 0.013733; 0.817017
0.000227; 0.006775; 0.817078
0.000249; 0.000854; 0.780701
0.000272; -0.004028; 0.707825
0.000295; -0.008728; 0.604187
0.000317; -0.015930; 0.471130
0.000340; -0.019958; 0.317383
0.000363; -0.022461; 0.150146
0.000385; -0.025696; -0.025757
0.000408; -0.025330; -0.202576
0.000431; -0.023804; -0.371643
0.000454; -0.022888; -0.525269
0.000476; -0.019897; -0.654419
0.000499; -0.014465; -0.751709
0.000522; -0.010132; -0.813232
0.000544; -0.004639; -0.836609
0.000567; 0.002563; -0.820312
0.000590; 0.008301; -0.766113
0.000612; 0.014587; -0.676147
0.000635; 0.019653; -0.555237
0.000658; 0.023315; -0.412231
0.000680; 0.028564; -0.252197
0.000703; 0.029602; -0.083923
0.000726; 0.031250; 0.088013
0.000748; 0.032166; 0.257568
0.000771; 0.030396; 0.415527
0.000794; 0.028137; 0.556458
0.000816; 0.023926; 0.671570
0.000839; 0.021484; 0.756165
0.000862; 0.014282; 0.806519
0.000884; 0.008545; 0.821533
0.000907; 0.002869; 0.800049
0.000930; -0.003235; 0.742187
0.000952; -0.008240; 0.649902
0.000975; -0.015076; 0.527954
0.000998; -0.019104; 0.382324
0.001020; -0.022583; 0.219238
0.001043; -0.025635; 0.045776
0.001066; -0.026001; -0.130615
0.001088; -0.026001; -0.304077
0.001111; -0.023865; -0.465271
0.001134; -0.020996; -0.604370
0.001156; -0.017334; -0.715454
0.001179; -0.012268; -0.792175
0.001202; -0.007080; -0.831177
0.001224; -0.001831; -0.830505
0.001247; 0.004700; -0.791138
0.001270; 0.010620; -0.714600
0.001293; 0.015503; -0.605408
0.001315; 0.023193; -0.469971
0.001338; 0.024902; -0.316650
0.001361; 0.028503; -0.149780
0.001383; 0.031250; 0.021301
0.001406; 0.031677; 0.191711
0.001429; 0.030273; 0.355652
0.001451; 0.027954; 0.504456
0.001474; 0.025818; 0.631287
0.001497; 0.021973; 0.728027
0.001519; 0.015625; 0.792542
0.001542; 0.008545; 0.822021
0.001565; 0.004761; 0.815308
0.001587; -0.001221; 0.771667
0.001610; -0.006897; 0.692749
0.001633; -0.015503; 0.580933
0.001655; -0.017944; 0.443909
0.001678; -0.021790; 0.286987
0.001701; -0.026428; 0.116821
0.001723; -0.027954; -0.059326
0.001746; -0.026550; -0.234680
0.001769; -0.025452; -0.401367
0.001791; -0.023193; -0.550781
0.001814; -0.018677; -0.674011
0.001837; -0.014465; -0.764893
0.001859; -0.008972; -0.818970
0.001882; -0.004944; -0.834961
0.001905; 0.002502; -0.810669
0.001927; 0.009338; -0.748962
0.001950; 0.014709; -0.652344
0.001973; 0.019043; -0.526855
0.001995; 0.023987; -0.379578
0.002018; 0.028809; -0.217102
0.002041; 0.030334; -0.047729
0.002063; 0.030518; 0.124329
0.002086; 0.031067; 0.291870
0.002109; 0.029297; 0.447754
0.002132; 0.027771; 0.583557
0.002154; 0.023132; 0.692261
0.002177; 0.018250; 0.770325
0.002200; 0.012146; 0.813721
0.002222; 0.006958; 0.821716
0.002245; 0.002197; 0.792603
0.002268; -0.005310; 0.726868
0.002290; -0.011047; 0.628479
0.002313; -0.015503; 0.501221
0.002336; -0.019165; 0.351868
0.002358; -0.022766; 0.186768
0.002381; -0.024597; 0.011902
0.002404; -0.027222; -0.165710
0.002426; -0.025818; -0.336914
0.002449; -0.022644; -0.493896
0.002472; -0.020935; -0.628967
0.002494; -0.017334; -0.733215
0.002517; -0.014282; -0.802307
0.002540; -0.006714; -0.833008
0.002562; -0.000732; -0.824951
0.002585; 0.003906; -0.778198
0.002608; 0.012390; -0.694275
0.002630; 0.014771; -0.580017
0.002653; 0.020935; -0.440491
0.002676; 0.025391; -0.283752
0.002698; 0.028381; -0.116211
0.002721; 0.029236; 0.055786
0.002744; 0.028931; 0.225281
0.002766; 0.030457; 0.387146
0.002789; 0.026367; 0.531311
0.002812; 0.023560; 0.652527
0.002834; 0.018921; 0.743164
0.002857; 0.013855; 0.800964
0.002880; 0.007874; 0.823669
0.002902; 0.000488; 0.808289
0.002925; -0.004333; 0.757141
0.002948; -0.010254; 0.671448
0.002971; -0.015808; 0.554993
0.002993; -0.019348; 0.413879
0.003016; -0.023682; 0.253723
0.003039; -0.027039; 0.081726
0.003061; -0.027283; -0.094971
0.003084; -0.027832; -0.269592
0.003107; -0.025879; -0.433350
0.003129; -0.024414; -0.578369
0.003152; -0.020813; -0.695740
0.003175; -0.015076; -0.779236
0.003197; -0.011169; -0.825745
0.003220; -0.004456; -0.833191
0.003243; 0.001099; -0.801636
0.003265; 0.007568; -0.732300
0.003288; 0.013916; -0.629333
0.003311; 0.017639; -0.499634
0.003333; 0.023071; -0.348877
0.003356; 0.025879; -0.184631
0.003379; 0.029114; -0.013855
0.003401; 0.029480; 0.157715
0.003424; 0.028625; 0.323425
0.003447; 0.027710; 0.475891
0.003469; 0.024597; 0.606689
0.003492; 0.020386; 0.710205
0.003515; 0.014954; 0.781250
0.003537; 0.010071; 0.818359
0.003560; 0.004517; 0.818359
0.003583; -0.001892; 0.781860
0.003605; -0.009216; 0.709900
0.003628; -0.014832; 0.604736
0.003651; -0.019836; 0.472290
0.003673; -0.023682; 0.319092
0.003696; -0.026794; 0.151306
0.003719; -0.029785; -0.024719
0.003741; -0.029968; -0.200745
0.003764; -0.028503; -0.370117
0.003787; -0.025269; -0.523132
0.003810; -0.022339; -0.652405
0.003832; -0.019165; -0.750366
0.003855; -0.013428; -0.811890
0.003878; -0.007751; -0.835022
0.003900; -0.001221; -0.819092
0.003923; 0.004456; -0.764526
0.003946; 0.010620; -0.674744
0.003968; 0.016785; -0.554077
0.003991; 0.020569; -0.410583
0.004014; 0.024536; -0.251465
0.004036; 0.027649; -0.082336
0.004059; 0.029114; 0.089478
0.004082; 0.027832; 0.257690
0.004104; 0.026917; 0.417236
0.004127; 0.025391; 0.557922
0.004150; 0.022217; 0.672913
0.004172; 0.016785; 0.756592
0.004195; 0.011414; 0.807800
0.004218; 0.006409; 0.822998
0.004240; 0.001221; 0.801025
0.004263; -0.006165; 0.742554
0.004286; -0.012329; 0.650391
0.004308; -0.016479; 0.528564
0.004331; -0.022400; 0.382507
0.004354; -0.026306; 0.220398
0.004376; -0.027588; 0.046265
0.004399; -0.028748; -0.130371
0.004422; -0.029663; -0.304199
0.004444; -0.028259; -0.464783
0.004467; -0.026123; -0.604614
0.004490; -0.021606; -0.715515
0.004512; -0.016541; -0.791809
0.004535; -0.012146; -0.831116
0.004558; -0.005798; -0.830933
0.004580; 0.001282; -0.790771
0.004603; 0.007812; -0.714233
0.004626; 0.013855; -0.605774
0.004649; 0.017944; -0.470886
0.004671; 0.021912; -0.316895
0.004694; 0.026489; -0.151062
0.004717; 0.029297; 0.020386
0.004739; 0.029846; 0.191711
0.004762; 0.026978; 0.354858
0.004785; 0.025940; 0.503906
0.004807; 0.023071; 0.629822
0.004830; 0.018677; 0.727173
0.004853; 0.013916; 0.791748
0.004875; 0.008362; 0.821167
0.004898; 0.001892; 0.813843
0.004921; -0.003723; 0.770264
0.004943; -0.008789; 0.691345
0.004966; -0.014526; 0.580139
0.004989; -0.018921; 0.443481
0.005011; -0.022644; 0.286743
0.005034; -0.026611; 0.116699
0.005057; -0.027954; -0.059570
0.005079; -0.028381; -0.235718
0.005102; -0.026672; -0.402161
0.005125; -0.024841; -0.551758
0.005147; -0.020508; -0.674927
0.005170; -0.017700; -0.766113
0.005193; -0.012573; -0.820068
0.005215; -0.005798; -0.835083
0.005238; 0.000671; -0.811401
0.005261; 0.004456; -0.749451
0.005283; 0.009644; -0.653015
0.005306; 0.015991; -0.527527
0.005329; 0.021851; -0.380371
0.005351; 0.024231; -0.218323
0.005374; 0.026611; -0.048218
0.005397; 0.026794; 0.123352
0.005420; 0.026855; 0.290894
0.005442; 0.026367; 0.446716
0.005465; 0.023071; 0.582825
0.005488; 0.017944; 0.691467
0.005510; 0.013855; 0.769958
0.005533; 0.009460; 0.813599
0.005556; 0.002441; 0.821106
0.005578; -0.002441; 0.792236
0.005601; -0.009766; 0.726685
0.005624; -0.014160; 0.628052
0.005646; -0.019348; 0.500427
0.005669; -0.025085; 0.350952
0.005692; -0.028748; 0.185913
0.005714; -0.029602; 0.011292
0.005737; -0.031189; -0.166016
0.005760; -0.031189; -0.337463
0.005782; -0.028198; -0.494690
0.005805; -0.024841; -0.629333
0.005828; -0.020752; -0.734558
0.005850; -0.016418; -0.803528
0.005873; -0.010254; -0.834290
0.005896; -0.005310; -0.826294
0.005918; 0.000488; -0.778931
0.005941; 0.007690; -0.695618
0.005964; 0.012512; -0.581238
0.005986; 0.017334; -0.441895
0.006009; 0.021667; -0.284424
0.006032; 0.024353; -0.117432
0.006054; 0.025635; 0.054382
0.006077; 0.026733; 0.224365
0.006100; 0.026489; 0.385681
0.006122; 0.024292; 0.531067
0.006145; 0.020386; 0.651184
0.006168; 0.016052; 0.742065
0.006190; 0.012329; 0.799927
0.006213; 0.004578; 0.822021
0.006236; 0.000366; 0.807922
0.006259; -0.007141; 0.756775
0.006281; -0.012573; 0.670837
0.006304; -0.016235; 0.554932
0.006327; -0.022217; 0.412903
0.006349; -0.025635; 0.253357
0.006372; -0.029602; 0.081787
0.006395; -0.031311; -0.095947
0.006417; -0.030212; -0.270447
0.006440; -0.029175; -0.434143
0.006463; -0.027893; -0.579346
0.006485; -0.023804; -0.696655
0.006508; -0.018738; -0.780029
0.006531; -0.015320; -0.826782
0.006553; -0.008057; -0.834351
0.006576; -0.001099; -0.802429
0.006599; 0.004517; -0.733154
0.006621; 0.010254; -0.630005
0.006644; 0.015808; -0.499756
0.006667; 0.020813; -0.349365
0.006689; 0.023193; -0.185425
0.006712; 0.026001; -0.014465
0.006735; 0.025879; 0.157227
0.006757; 0.024841; 0.322510
0.006780; 0.023254; 0.475098
0.006803; 0.020874; 0.606506
0.006825; 0.015076; 0.709412
0.006848; 0.013794; 0.781006
0.006871; 0.005493; 0.817505
0.006893; 0.001099; 0.817688
0.006916; -0.006897; 0.781189
0.006939; -0.012512; 0.709229
0.006961; -0.016357; 0.604614
0.006984; -0.023682; 0.471680
0.007007; -0.026489; 0.318115
0.007029; -0.029297; 0.150696
0.007052; -0.028931; -0.024719
0.007075; -0.032593; -0.201416
0.007098; -0.029602; -0.370422
0.007120; -0.028015; -0.524109
0.007143; -0.026062; -0.653503
0.007166; -0.020996; -0.751587
0.007188; -0.015381; -0.812439
0.007211; -0.009521; -0.836304
0.007234; -0.005737; -0.820679
0.007256; 0.002502; -0.765808
0.007279; 0.007629; -0.676025
0.007302; 0.012817; -0.555908
0.007324; 0.016357; -0.412903
0.007347; 0.020752; -0.252869
0.007370; 0.024536; -0.083801
0.007392; 0.026306; 0.088013
0.007415; 0.027832; 0.256348
0.007438; 0.024048; 0.415344
0.007460; 0.022888; 0.556030
0.007483; 0.019287; 0.670166
0.007506; 0.013062; 0.754578
0.007528; 0.009155; 0.806213
0.007551; 0.003845; 0.820923
0.007574; -0.004333; 0.797913
0.007596; -0.008179; 0.740112
0.007619; -0.014648; 0.647644
0.007642; -0.019470; 0.526245
0.007664; -0.024597; 0.380066
0.007687; -0.028259; 0.217163
0.007710; -0.030273; 0.044617
0.007732; -0.031677; -0.133240
0.007755; -0.030396; -0.305969
0.007778; -0.031250; -0.467590
0.007800; -0.025635; -0.607300
0.007823; -0.022766; -0.718323
0.007846; -0.017395; -0.794556
0.007868; -0.012085; -0.833801
0.007891; -0.007629; -0.833679
0.007914; -0.000671; -0.793884
0.007937; 0.007019; -0.717224
0.007959; 0.011719; -0.608337
0.007982; 0.017822; -0.473633
0.008005; 0.022156; -0.319702
0.008027; 0.024719; -0.153381
0.008050; 0.026733; 0.017639
0.008073; 0.026611; 0.188843
0.008095; 0.026428; 0.352051
0.008118; 0.024109; 0.500122
0.008141; 0.022400; 0.627380
0.008163; 0.016968; 0.723816
0.008186; 0.012756; 0.789001
0.008209; 0.005310; 0.817871
0.008231; 0.000305; 0.811096
0.008254; -0.005188; 0.766785
0.008277; -0.010010; 0.688171
0.008299; -0.017090; 0.577515
0.008322; -0.023376; 0.439941
0.008345; -0.025024; 0.284119
0.008367; -0.029480; 0.113464
0.008390; -0.030884; -0.062683
0.008413; -0.031067; -0.238525
0.008435; -0.031311; -0.405640
0.008458; -0.028687; -0.554932
0.008481; -0.023987; -0.677795
0.008503; -0.018066; -0.768616
0.008526; -0.013855; -0.822632
0.008549; -0.007996; -0.838196
0.008571; -0.002625; -0.814636
0.008594; 0.002686; -0.752258
0.008617; 0.010742; -0.655212
0.008639; 0.015991; -0.529968
0.008662; 0.021301; -0.382507
0.008685; 0.025085; -0.220520
0.008707; 0.026306; -0.051392
0.008730; 0.026550; 0.120911
0.008753; 0.027832; 0.288574
0.008776; 0.025879; 0.443726
0.008798; 0.022400; 0.580017
0.008821; 0.019348; 0.689697
0.008844; 0.014526; 0.767456
0.008866; 0.008423; 0.811401
0.008889; 0.001648; 0.818542
0.008912; -0.002625; 0.789673
0.008934; -0.009521; 0.724121
0.008957; -0.014282; 0.625305
0.008980; -0.020081; 0.499329
0.009002; -0.024170; 0.349182
0.009025; -0.028198; 0.183594
0.009048; -0.029968; 0.009583
0.009070; -0.030579; -0.167847
0.009093; -0.031372; -0.339783
0.009116; -0.029114; -0.497070
0.009138; -0.024780; -0.630859
0.009161; -0.019470; -0.735352
0.009184; -0.015625; -0.804443
0.009206; -0.011108; -0.835693
0.009229; -0.003967; -0.827332
0.009252; 0.001709; -0.780029
0.009274; 0.006958; -0.697144
0.009297; 0.012878; -0.582336
0.009320; 0.016541; -0.443542
0.009342; 0.022461; -0.285706
0.009365; 0.025085; -0.117676
0.009388; 0.025574; 0.053223
0.009410; 0.026306; 0.223450
0.009433; 0.025940; 0.385254
0.009456; 0.024231; 0.530151
0.009478; 0.019897; 0.650269
0.009501; 0.014648; 0.740723
0.009524; 0.010376; 0.799255
0.009546; 0.005249; 0.822144
0.009569; -0.001160; 0.807190
0.009592; -0.005676; 0.756348
0.009615; -0.011780; 0.670471
0.009637; -0.018372; 0.553772
0.009660; -0.022034; 0.412598
0.009683; -0.026428; 0.252991
0.009705; -0.028748; 0.081604
0.009728; -0.031006; -0.095764
0.009751; -0.031006; -0.270447
0.009773; -0.029907; -0.434509
0.009796; -0.027039; -0.579102
0.009819; -0.022522; -0.696045
0.009841; -0.018005; -0.779358
0.009864; -0.013184; -0.826294
0.009887; -0.010010; -0.833862
0.009909; -0.001587; -0.802002
0.009932; 0.004700; -0.732117
0.009955; 0.010193; -0.628906
0.009977; 0.015137; -0.499573
0.010000; 0.019531; -0.349182
0.010023; 0.024109; -0.185059
0.010045; 0.026611; -0.013916
0.010068; 0.026367; 0.157288
0.010091; 0.025513; 0.322937
0.010113; 0.024109; 0.475647
0.010136; 0.020508; 0.606995
0.010159; 0.017151; 0.710083
0.010181; 0.012573; 0.781372
0.010204; 0.005737; 0.818054
0.010227; 0.000977; 0.818298
0.010249; -0.005493; 0.781616
0.010272; -0.010254; 0.709290
0.010295; -0.016663; 0.604553
0.010317; -0.023315; 0.471863
0.010340; -0.026245; 0.319336
0.010363; -0.029297; 0.151184
0.010385; -0.030884; -0.024414
0.010408; -0.032898; -0.201294
0.010431; -0.031555; -0.370361
0.010454; -0.029114; -0.524414
0.010476; -0.024414; -0.653320
0.010499; -0.020813; -0.751160
0.010522; -0.016541; -0.812683
0.010544; -0.010376; -0.835144
0.010567; -0.004028; -0.820068
0.010590; 0.000854; -0.764893
0.010612; 0.007874; -0.674622
0.010635; 0.012817; -0.554932
0.010658; 0.017456; -0.411865
0.010680; 0.022217; -0.251953
0.010703; 0.025574; -0.083130
0.010726; 0.026550; 0.088806
0.010748; 0.026001; 0.257446
0.010771; 0.025757; 0.416504
0.010794; 0.022827; 0.556946
0.010816; 0.019714; 0.672119
0.010839; 0.014648; 0.756226
0.010862; 0.010559; 0.807495
0.010884; 0.003845; 0.822327
0.010907; -0.001892; 0.800232
0.010930; -0.007324; 0.742249
0.010952; -0.013000; 0.649963
0.010975; -0.018494; 0.528259
0.010998; -0.022095; 0.382385
0.011020; -0.026001; 0.219299
0.011043; -0.030334; 0.045776
0.011066; -0.030334; -0.131287
0.011088; -0.030518; -0.305054
0.011111; -0.027405; -0.464966
0.011134; -0.023865; -0.604736
0.011156; -0.021057; -0.716187
0.011179; -0.015564; -0.792786
0.011202; -0.010986; -0.831299
0.011224; -0.004517; -0.830994
0.011247; 0.001282; -0.791870
0.011270; 0.005615; -0.715332
0.011293; 0.013367; -0.606079
0.011315; 0.018799; -0.471558
0.011338; 0.022400; -0.317871
0.011361; 0.024597; -0.151550
0.011383; 0.027344; 0.019653
0.011406; 0.028503; 0.190430
0.011429; 0.026917; 0.354492
0.011451; 0.025085; 0.503418
0.011474; 0.021973; 0.628845
0.011497; 0.018372; 0.726196
0.011519; 0.013977; 0.791382
0.011542; 0.009155; 0.821350
0.011565; 0.001465; 0.813477
0.011587; -0.004761; 0.769348
0.011610; -0.011536; 0.690186
0.011633; -0.017029; 0.579895
0.011655; -0.021729; 0.442505
0.011678; -0.026672; 0.285400
0.011701; -0.027283; 0.116211
0.011723; -0.030090; -0.060242
0.011746; -0.028259; -0.235718
0.011769; -0.028503; -0.403015
0.011791; -0.026123; -0.552246
0.011814; -0.022827; -0.675537
0.011837; -0.018616; -0.766724
0.011859; -0.011597; -0.820435
0.011882; -0.005676; -0.835815
0.011905; -0.000732; -0.812073
0.011927; 0.005005; -0.750183
0.011950; 0.011169; -0.653748
0.011973; 0.016602; -0.527771
0.011995; 0.022095; -0.380981
0.012018; 0.025574; -0.218933
0.012041; 0.027527; -0.049011
0.012063; 0.028748; 0.122986
0.012086; 0.028137; 0.290527
0.012109; 0.029236; 0.446228
0.012132; 0.025269; 0.582092
0.012154; 0.021240; 0.691528
0.012177; 0.016663; 0.769592
0.012200; 0.011353; 0.813477
0.012222; 0.005981; 0.820679
0.012245; -0.001221; 0.791443
0.012268; -0.006897; 0.726257
0.012290; -0.012756; 0.627197
0.012313; -0.018311; 0.500427
0.012336; -0.023804; 0.350891
0.012358; -0.027649; 0.184937
0.012381; -0.027222; 0.010803
0.012404; -0.028809; -0.166504
0.012426; -0.029114; -0.338074
0.012449; -0.025818; -0.495300
0.012472; -0.024353; -0.630310
0.012494; -0.020081; -0.734741
0.012517; -0.014648; -0.803833
0.012540; -0.007507; -0.834045
0.012562; -0.001526; -0.826416
0.012585; 0.004333; -0.779358
0.012608; 0.010620; -0.696167
0.012630; 0.015076; -0.581604
0.012653; 0.021606; -0.441772
0.012676; 0.026184; -0.284973
0.012698; 0.028870; -0.117493
0.012721; 0.029968; 0.054382
0.012744; 0.030945; 0.224915
0.012766; 0.029175; 0.385437
0.012789; 0.028381; 0.530518
0.012812; 0.023376; 0.650757
0.012834; 0.018555; 0.741760
0.012857; 0.014526; 0.799988
0.012880; 0.008484; 0.822205
0.012902; 0.000977; 0.806763
0.012925; -0.004944; 0.755798
0.012948; -0.009705; 0.670898
0.012971; -0.014954; 0.554626
0.012993; -0.019470; 0.412903
0.013016; -0.024658; 0.251953
0.013039; -0.027161; 0.081238
0.013061; -0.030273; -0.096008
0.013084; -0.029907; -0.271118
0.013107; -0.025940; -0.434509
0.013129; -0.024719; -0.579285
0.013152; -0.019836; -0.696289
0.013175; -0.016602; -0.780762
0.013197; -0.011536; -0.827026
0.013220; -0.004395; -0.834290
0.013243; 0.001221; -0.802734
0.013265; 0.006348; -0.733337
0.013288; 0.014038; -0.630310
0.013311; 0.019226; -0.500000
0.013333; 0.022400; -0.349426
0.013356; 0.026733; -0.185486
0.013379; 0.027893; -0.014465
0.013401; 0.029114; 0.156860
0.013424; 0.030884; 0.323364
0.013447; 0.028870; 0.475281
0.013469; 0.023987; 0.605835
0.013492; 0.019958; 0.709351
0.013515; 0.016052; 0.780823
0.013537; 0.011719; 0.818176
0.013560; 0.004822; 0.817810
0.013583; 0.000061; 0.781067
0.013605; -0.007324; 0.709045
0.013628; -0.012512; 0.604126
0.013651; -0.017212; 0.471985
0.013673; -0.022095; 0.318542
0.013696; -0.024414; 0.150879
0.013719; -0.027100; -0.024780
0.013741; -0.025635; -0.201416
0.013764; -0.024597; -0.370789
0.013787; -0.022278; -0.523743
0.013810; -0.019592; -0.653381
0.013832; -0.015930; -0.751160
0.013855; -0.010742; -0.812805
0.013878; -0.005615; -0.836365
0.013900; -0.001282; -0.820496
0.013923; 0.007507; -0.765625
0.013946; 0.013428; -0.675293
0.013968; 0.017639; -0.554932
0.013991; 0.022400; -0.411865
0.014014; 0.025940; -0.252258
0.014036; 0.029480; -0.083130
0.014059; 0.031799; 0.088806
0.014082; 0.031921; 0.257751
0.014104; 0.029724; 0.415955
0.014127; 0.028687; 0.557617
0.014150; 0.024109; 0.672424
0.014172; 0.019287; 0.756287
0.014195; 0.015198; 0.807068
0.014218; 0.008240; 0.821777
0.014240; 0.002380; 0.800110
0.014263; -0.005005; 0.741699
0.014286; -0.009644; 0.649780
0.014308; -0.015320; 0.527832
0.014331; -0.020020; 0.382019
0.014354; -0.022766; 0.219360
0.014376; -0.026001; 0.045959
0.014399; -0.026733; -0.131531
0.014422; -0.027710; -0.304993
0.014444; -0.023987; -0.465393
0.014467; -0.021973; -0.605652
0.014490; -0.019043; -0.716431
0.014512; -0.014160; -0.792847
0.014535; -0.008301; -0.831543
0.014558; -0.002380; -0.831604
0.014580; 0.003662; -0.791321
